0 180.417
0.002 180.417
0.004 180.417
0.006 180.417
0.008 176
0.01 174.167
0.012 172.083
0.014 170.083
0.016 147.583
0.018 127
0.02 106.167
0.022 85.3333
0.024 71.1667
0.026 57.0833
0.028 42.6667
0.03 28.5833
0.032 26
0.034 23.4167
0.036 21.1667
0.038 18.5833
0.04 -1.16667
0.042 -20.3333
0.044 -39.5
0.046 -58.5
0.048 -66.6667
0.05 -71.6667
0.052 -77.3333
0.054 -82.0833
0.056 -85.5
0.058 -90.9167
0.06 -96.9167
0.062 -102.417
0.064 -111
0.066 -122.083
0.068 -133
0.07 -144
0.072 -138.333
0.074 -134.917
0.076 -131.833
0.078 -128.583
0.08 -129.75
0.082 -131.75
0.084 -133.75
0.086 -135.833
0.088 -131.333
0.09 -126.083
0.092 -120.833
0.094 -115.583
0.096 -107.333
0.098 -100.75
0.1 -94.5
0.102 -87.75
0.104 -88.1667
0.106 -87
0.108 -86.5833
0.11 -85.5
0.112 -84.0833
0.114 -83.6667
0.116 -83.3333
0.118 -83
0.12 -87.75
0.122 -90.1667
0.124 -93.5
0.126 -95.9167
0.128 -98
0.13 -97.5833
0.132 -97.1667
0.134 -96.75
0.136 -90.0833
0.138 -87.0833
0.14 -84.6667
0.142 -81.3333
0.144 -83.3333
0.146 -83.6667
0.148 -84.1667
0.15 -84.5833
0.152 -86.5
0.154 -86.9167
0.156 -87.25
0.158 -87.8333
0.16 -83.1667
0.162 -78.1667
0.164 -73.1667
0.166 -68.5
0.168 -63.1667
0.17 -59.4167
0.172 -55.6667
0.174 -51.9167
0.176 -56.25
0.178 -57.75
0.18 -60.3333
0.182 -62
0.184 -69.1667
0.186 -73.0833
0.188 -77.25
0.19 -81.4167
0.192 -71.0833
0.194 -65
0.196 -59.6667
0.198 -53.5833
0.2 -52.5
0.202 -52.0833
0.204 -51.6667
0.206 -51.25
0.208 -57.75
0.21 -60.1667
0.212 -62.5833
0.214 -65
0.216 -59.25
0.218 -56.9167
0.22 -54.4167
0.222 -51.9167
0.224 -47.0833
0.226 -44
0.228 -40.5833
0.23 -37.3333
0.232 -43.5
0.234 -45.4167
0.236 -48.25
0.238 -50.4167
0.24 -49.4167
0.242 -49.5833
0.244 -49.5833
0.246 -49.5833
0.248 -43.25
0.25 -38.3333
0.252 -33.3333
0.254 -28.25
0.256 -32.1667
0.258 -37.4167
0.26 -42.6667
0.262 -47.9167
0.264 -51.6667
0.266 -52.0833
0.268 -52.3333
0.27 -52.8333
0.272 -46
0.274 -40.75
0.276 -35.3333
0.278 -30
0.28 -34.5
0.282 -36.5
0.284 -38.5833
0.286 -40.5833
0.288 -45.5
0.29 -46.3333
0.292 -47.25
0.294 -48
0.296 -48.0833
0.298 -48.9167
0.3 -50.4167
0.302 -51.5
0.304 -59.0833
0.306 -58.9167
0.308 -58.4167
0.31 -64.5833
0.312 -67.4167
0.314 -67
0.316 -65.4167
0.318 -66.5833
0.32 -68.5
0.322 -66
0.324 -69.5833
0.326 -72.5
0.328 -68.0833
0.33 -69.6667
0.332 -74.75
0.334 -72.25
0.336 -71.5833
0.338 -72.25
0.34 -76.3333
0.342 -78.9167
0.344 -71.5833
0.346 -69.9167
0.348 -72.9167
0.35 -73.3333
0.352 -79.25
0.354 -80.0833
0.356 -76.9167
0.358 -76.5
0.36 -78.4167
0.362 -88.1667
0.364 -88.9167
0.366 -82.9167
0.368 -76.9167
0.37 -76.5
0.372 -79.75
0.374 -78.0833
0.376 -71.6667
0.378 -71.25
0.38 -72.4167
0.382 -70.4167
0.384 -73.6667
0.386 -80.1667
0.388 -85.75
0.39 -86.5833
0.392 -83.6667
0.394 -85
0.396 -87.75
0.398 -90.75
0.4 -80.8333
0.402 -76.5833
0.404 -73.0833
0.406 -68.9167
0.408 -71.9167
0.41 -80.8333
0.412 -83.6667
0.414 -77.25
0.416 -66.75
0.418 -61.0833
0.42 -54.9167
0.422 -49.6667
0.424 -47.5
0.426 -46.75
0.428 -49.25
0.43 -53.8333
0.432 -49
0.434 -40.5833
0.436 -33.75
0.438 -33
0.44 -22.5
0.442 -11.25
0.444 5.75
0.446 -2.41667
0.448 -11
0.45 14.75
0.452 54.8333
0.454 83.8333
0.456 114.333
0.458 165.25
0.46 202.5
0.462 213.083
0.464 230.5
0.466 271.667
0.468 311.083
0.47 308.667
0.472 272.583
0.474 231.5
0.476 194
0.478 173.75
0.48 159.75
0.482 118.833
0.484 75.6667
0.486 63.5
0.488 58.0833
0.49 48.9167
0.492 49.25
0.494 48.8333
0.496 32.6667
0.498 6.91667
0.5 -4
0.502 -0.75
0.504 -17.8333
0.506 -48.75
0.508 -51.4167
0.51 -28
0.512 -20.3333
0.514 -31.5
0.516 -50.3333
0.518 -67.5833
0.52 -71.6667
0.522 -63.75
0.524 -70.3333
0.526 -78.1667
0.528 -70
0.53 -66.75
0.532 -86.9167
0.534 -99.1667
0.536 -87.75
0.538 -70.4167
0.54 -54.1667
0.542 -48.4167
0.544 -56.25
0.546 -47.5833
0.548 -28.5
0.55 -45
0.552 -60.5833
0.554 -30.0833
0.556 -34.25
0.558 -33.3333
0.56 -33.6667
0.562 -35.3333
0.564 -42.75
0.566 -44
0.568 -52.1667
0.57 -61.8333
0.572 -58.1667
0.574 -54.9167
0.576 -54.0833
0.578 -54.75
0.58 -48.9167
0.582 -43.0833
0.584 -35.25
0.586 -28.0833
0.588 -35
0.59 -39.5833
0.592 -43.5
0.594 -42.4167
0.596 -39.4167
0.598 -37.8333
0.6 -42.3333
0.602 -48.5
0.604 -54.5833
0.606 -58.5
0.608 -55.6667
0.61 -49.5833
0.612 -39.75
0.614 -34.5
0.616 -26.9167
0.618 -17.8333
0.62 -19.8333
0.622 -18.25
0.624 -15.5
0.626 -15.75
0.628 -11.75
0.63 -5.16667
0.632 -3.66667
0.634 -2.91667
0.636 -0.666667
0.638 3.91667
0.64 -0.916667
0.642 -0.416667
0.644 7.91667
0.646 11.4167
0.648 15
0.65 16.6667
0.652 20
0.654 11.6667
0.656 5.25
0.658 7.16667
0.66 20.75
0.662 28.4167
0.664 28
0.666 33.3333
0.668 37.75
0.67 38.5833
0.672 40.3333
0.674 38.1667
0.676 33.8333
0.678 31.8333
0.68 31.5833
0.682 30
0.684 36.0833
0.686 37.6667
0.688 40.25
0.69 45.5833
0.692 54.5
0.694 60.5833
0.696 62.25
0.698 63.4167
0.7 54.4167
0.702 53.5833
0.704 48
0.706 37.0833
0.708 42.6667
0.71 49.25
0.712 57.3333
0.714 66.6667
0.716 59.0833
0.718 52.4167
0.72 41.9167
0.722 27.25
0.724 33
0.726 38.4167
0.728 43.75
0.73 45
0.732 37.0833
0.734 31.3333
0.736 26.9167
0.738 20.4167
0.74 15.9167
0.742 9.75
0.744 6.25
0.746 3
0.748 -0.75
0.75 -0.75
0.752 -1.16667
0.754 -0.833333
0.756 23.0833
0.758 19.9167
0.76 17.1667
0.762 11.4167
0.764 9.5
0.766 8.25
0.768 6.83333
0.77 5.66667
0.772 1.66667
0.774 3.75
0.776 7.25
0.778 11.4167
0.78 14.25
0.782 15.8333
0.784 19.8333
0.786 25.0833
0.788 22.3333
0.79 23.5833
0.792 27.6667
0.794 24.4167
0.796 21.1667
0.798 23.4167
0.8 20.9167
0.802 15.4167
0.804 24.8333
0.806 34.1667
0.808 41.5833
0.81 46.25
0.812 44.3333
0.814 44
0.816 41.25
0.818 33.75
0.82 26.8333
0.822 25.4167
0.824 24.4167
0.826 28.0833
0.828 32.8333
0.83 30.5833
0.832 21.9167
0.834 22.3333
0.836 20.4167
0.838 19.4167
0.84 15.4167
0.842 7.41667
0.844 10.5
0.846 11.75
0.848 10.0833
0.85 6.83333
0.852 13.4167
0.854 15.4167
0.856 14.25
0.858 14
0.86 19.8333
0.862 26.3333
0.864 28.4167
0.866 28
0.868 17.9167
0.87 15.5
0.872 12.4167
0.874 8.25
0.876 7
0.878 3.41667
0.88 -7.83333
0.882 -11.8333
0.884 -0.583333
0.886 4.33333
0.888 5.25
0.89 7.41667
0.892 6.41667
0.894 6.41667
0.896 6.08333
0.898 2.75
0.9 4.08333
0.902 6.58333
0.904 14.75
0.906 22
0.908 4.41667
0.91 17.5833
0.912 25
0.914 8.91667
0.916 54.6667
0.918 129.667
0.92 134.167
0.922 90.6667
0.924 100.917
0.926 172
0.928 230.917
0.93 266
0.932 307.5
0.934 325.75
0.936 308.167
0.938 281.75
0.94 264.75
0.942 259.417
0.944 244.5
0.946 221.583
0.948 202.167
0.95 164.75
0.952 125.25
0.954 124.5
0.956 131.667
0.958 151
0.96 178.167
0.962 172.75
0.964 134.167
0.966 89.5
0.968 62.25
0.97 56
0.972 65.9167
0.974 78.75
0.976 71.6667
0.978 52.75
0.98 51.5833
0.982 60.1667
0.984 53.9167
0.986 25.25
0.988 -0.75
0.99 -12.3333
0.992 -19.0833
0.994 -23.8333
0.996 -30
0.998 -38.1667
1 -43.1667
1.002 -29.3333
1.004 -16.25
1.006 -13
1.008 -28.8333
1.01 -41
1.012 -37.8333
1.014 -44.6667
1.016 -37.75
1.018 -5.58333
1.02 14.25
1.022 19.9167
1.024 21.25
1.026 22.75
1.028 27.6667
1.03 30.8333
1.032 32.9167
1.034 32.1667
1.036 36.5833
1.038 34.5
1.04 30.0833
1.042 31.3333
1.044 35.5
1.046 37.1667
1.048 37.1667
1.05 44.1667
1.052 50.3333
1.054 59
1.056 66.5
1.058 64.4167
1.06 62.4167
1.062 61.0833
1.064 64.1667
1.066 76.5
1.068 82.5833
1.07 82.5833
1.072 81
1.074 79
1.076 76.4167
1.078 81
1.08 88.5833
1.082 90.4167
1.084 87.5
1.086 86.9167
1.088 88.5833
1.09 84.0833
1.092 85.6667
1.094 88.5833
1.096 88.25
1.098 96.4167
1.1 105.25
1.102 109.5
1.104 112.75
1.106 109.417
1.108 107.417
1.11 96
1.112 89.9167
1.114 97.8333
1.116 102.5
1.118 107.083
1.12 109.417
1.122 105.333
1.124 94.8333
1.126 85.8333
1.128 85.25
1.13 95.25
1.132 100.167
1.134 96.75
1.136 99.1667
1.138 97.6667
1.14 95.6667
1.142 94.9167
1.144 90.4167
1.146 89.5
1.148 87.8333
1.15 88.75
1.152 87.8333
1.154 81.3333
1.156 73.5833
1.158 66.6667
1.16 62.5833
1.162 72.9167
1.164 77.75
1.166 78.5
1.168 78.8333
1.17 76.9167
1.172 82.1667
1.174 82.5
1.176 77.5833
1.178 75.5
1.18 78.5833
1.182 82.5833
1.184 88
1.186 96
1.188 99.5
1.19 99.25
1.192 94.75
1.194 97.25
1.196 99.25
1.198 101.583
1.2 99.9167
1.202 95.25
1.204 92.3333
1.206 90.75
1.208 87
1.21 84.5833
1.212 80.5
1.214 78
1.216 76.9167
1.218 69.5833
1.22 66.9167
1.222 63.4167
1.224 61.0833
1.226 61.75
1.228 67.0833
1.23 77.5833
1.232 88.25
1.234 78.0833
1.236 69.5833
1.238 66.8333
1.24 66.4167
1.242 72.4167
1.244 75.4167
1.246 70.8333
1.248 75.1667
1.25 64.1667
1.252 45.0833
1.254 36.0833
1.256 35.8333
1.258 36.5
1.26 33.6667
1.262 37.8333
1.264 43.4167
1.266 39.9167
1.268 37.9167
1.27 38.25
1.272 35.8333
1.274 39.5833
1.276 43.5
1.278 45.5833
1.28 44
1.282 36.1667
1.284 30.4167
1.286 26.75
1.288 22.3333
1.29 12.3333
1.292 0.583333
1.294 7.41667
1.296 16.1667
1.298 23.5
1.3 30.0833
1.302 37.5
1.304 32.5833
1.306 31.3333
1.308 31.6667
1.31 32.5
1.312 29.75
1.314 27.25
1.316 27.25
1.318 28.4167
1.32 30.8333
1.322 35
1.324 41.8333
1.326 41.5
1.328 45.0833
1.33 49.25
1.332 49.5
1.334 46.3333
1.336 52.8333
1.338 58.5
1.34 62.6667
1.342 63.5
1.344 66.4167
1.346 69.1667
1.348 69.5833
1.35 65.6667
1.352 63.9167
1.354 63.9167
1.356 64.0833
1.358 68.6667
1.36 70.75
1.362 68.5833
1.364 60.25
1.366 61.5833
1.368 63.9167
1.37 63.4167
1.372 59.6667
1.374 52
1.376 53.5833
1.378 54.1667
1.38 51.5833
1.382 47.5833
1.384 45
1.386 42.9167
1.388 37.4167
1.39 33.3333
1.392 39
1.394 44.3333
1.396 45.1667
1.398 43.4167
1.4 35.3333
1.402 34.9167
1.404 33.4167
1.406 31
1.408 39.8333
1.41 41.4167
1.412 36.5
1.414 37.75
1.416 45.0833
1.418 49.8333
1.42 51.4167
1.422 53.6667
1.424 51.5833
1.426 53
1.428 53.6667
1.43 51.6667
1.432 38.25
1.434 32.5
1.436 32.5
1.438 31.6667
1.44 30.5
1.442 63.75
1.444 73.25
1.446 79.8333
1.448 117.167
1.45 152.5
1.452 138.25
1.454 140.25
1.456 190.25
1.458 229.75
1.46 271.583
1.462 328.667
1.464 368.417
1.466 356.5
1.468 303.333
1.47 260.667
1.472 246.833
1.474 245.833
1.476 237
1.478 215.833
1.48 188.25
1.482 185.833
1.484 193.5
1.486 159.417
1.488 159.5
1.49 221.583
1.492 231.75
1.494 184.25
1.496 158.833
1.498 137.333
1.5 107
1.502 82.1667
1.504 83.0833
1.506 100.917
1.508 102.333
1.51 80.4167
1.512 67.0833
1.514 87.8333
1.516 90.75
1.518 60.9167
1.52 31.8333
1.522 13.0833
1.524 0.333333
1.526 -4.5
1.528 -7.16667
1.53 4.08333
1.532 39.75
1.534 63.4167
1.536 41.4167
1.538 13.9167
1.54 14.25
1.542 15.75
1.544 14.8333
1.546 40.5833
1.548 51.75
1.55 34.25
1.552 49.0833
1.554 85.9167
1.556 79.8333
1.558 66.8333
1.56 60.0833
1.562 52.0833
1.564 43.5833
1.566 43.5
1.568 47.3333
1.57 44.3333
1.572 39.0833
1.574 40.25
1.576 43.4167
1.578 44.3333
1.58 43.5
1.582 48
1.584 51.25
1.586 56.5833
1.588 61.3333
1.59 64.6667
1.592 65.5833
1.594 67.0833
1.596 73.1667
1.598 87.4167
1.6 93.75
1.602 94.6667
1.604 93.9167
1.606 89
1.608 87
1.61 91.3333
1.612 99.25
1.614 102.083
1.616 100.417
1.618 101.667
1.62 104.167
1.622 100.833
1.624 101.167
1.626 102.917
1.628 101.25
1.63 102.167
1.632 108.583
1.634 109.75
1.636 110.167
1.638 108.667
1.64 110.5
1.642 102.833
1.644 101.25
1.646 109.75
1.648 113.083
1.65 116.167
1.652 117.583
1.654 119.167
1.656 108.583
1.658 100.333
1.66 99.9167
1.662 107.833
1.664 113.083
1.666 110.667
1.668 113.167
1.67 119.917
1.672 121.583
1.674 124.5
1.676 123.667
1.678 118.833
1.68 116.333
1.682 115.917
1.684 113.833
1.686 117.333
1.688 115.167
1.69 113.917
1.692 115.5
1.694 126.917
1.696 134.583
1.698 137.833
1.7 140.667
1.702 143.083
1.704 149.75
1.706 150.833
1.708 147.667
1.71 145.167
1.712 145.167
1.714 146.333
1.716 149.667
1.718 150.417
1.72 150.167
1.722 145.583
1.724 137.083
1.726 134.583
1.728 134.333
1.73 133.917
1.732 130.167
1.734 134.25
1.736 134.75
1.738 136.25
1.74 135.917
1.742 127.167
1.744 119.583
1.746 114.333
1.748 109.583
1.75 117.833
1.752 108
1.754 92.4167
1.756 98.5833
1.758 94.0833
1.76 92
1.762 89.9167
1.764 88.0833
1.766 79.6667
1.768 76
1.77 73.9167
1.772 72.5
1.774 70
1.776 68.75
1.778 70
1.78 72.3333
1.782 67.4167
1.784 67.6667
1.786 70.3333
1.788 65.8333
1.79 62.25
1.792 63.8333
1.794 61.9167
1.796 56.1667
1.798 52.1667
1.8 52.8333
1.802 52
1.804 47.9167
1.806 44.4167
1.808 44.75
1.81 42.4167
1.812 36.0833
1.814 31.4167
1.816 30.5
1.818 29.75
1.82 32.9167
1.822 37.5
1.824 36.1667
1.826 28.9167
1.828 30.5
1.83 35.9167
1.832 38.1667
1.834 37.3333
1.836 32.5
1.838 36.5833
1.84 38.6667
1.842 38.25
1.844 36.25
1.846 41.75
1.848 42.9167
1.85 41
1.852 39.9167
1.854 41.0833
1.856 44.25
1.858 42.5
1.86 39.5
1.862 40.9167
1.864 44.75
1.866 47.75
1.868 49.5833
1.87 46.5
1.872 39.6667
1.874 26.0833
1.876 19.25
1.878 32
1.88 40.25
1.882 45.0833
1.884 50.5
1.886 45.0833
1.888 44.75
1.89 43.9167
1.892 40.1667
1.894 35.75
1.896 35.8333
1.898 41.3333
1.9 45.5833
1.902 60.5833
1.904 62.25
1.906 50.3333
1.908 38.25
1.91 40.6667
1.912 60.6667
1.914 76.5
1.916 86.75
1.918 110.75
1.92 130.5
1.922 142.25
1.924 179.75
1.926 217.917
1.928 241.25
1.93 285.5
1.932 342
1.934 358.167
1.936 336.667
1.938 289.833
1.94 238.583
1.942 214.167
1.944 211
1.946 215.667
1.948 200.833
1.95 160.917
1.952 154.833
1.954 159.417
1.956 137.167
1.958 122.083
1.96 106.583
1.962 53.25
1.964 17.9167
1.966 32.4167
1.968 32.5
1.97 16.25
1.972 14.6667
1.974 1.25
1.976 13.8333
1.978 41.1667
1.98 33.25
1.982 26.8333
1.984 27.5833
1.986 -20.6667
1.988 -57.4167
1.99 -36.5833
1.992 -26.8333
1.994 -35.8333
1.996 -31.6667
1.998 -25.25
2 -24.3333
2.002 -28.0833
2.004 -25.5833
2.006 -7.75
2.008 -19.5833
2.01 -41.8333
2.012 -16.4167
2.014 7.66667
2.016 0.416667
2.018 -0.75
2.02 -4.5
2.022 -3.25
2.024 -3.25
2.026 -4.58333
2.028 2.83333
2.03 9.75
2.032 10.0833
2.034 8.08333
2.036 5.25
2.038 6.08333
2.04 4.33333
2.042 1.16667
2.044 -2.58333
2.046 -2.58333
2.048 -0.333333
2.05 0.416667
2.052 0.416667
2.054 0.416667
2.056 0.833333
2.058 6.41667
2.06 16.6667
2.062 19.9167
2.064 17.1667
2.066 13.5833
2.068 19
2.07 21.0833
2.072 29.75
2.074 41.3333
2.076 29
2.078 17.5833
2.08 8.5
2.082 1.66667
2.084 12.6667
2.086 23.1667
2.088 35.3333
2.09 44.4167
2.092 43.9167
2.094 48.3333
2.096 48
2.098 46.75
2.1 48.9167
2.102 50.4167
2.104 42.75
2.106 40.3333
2.108 47.25
2.11 51.3333
2.112 54.8333
2.114 57.4167
2.116 73.25
2.118 75.0833
2.12 79.9167
2.122 91.75
2.124 94.25
2.126 95.1667
2.128 87.8333
2.13 85.4167
2.132 85.5
2.134 83.4167
2.136 82.5
2.138 78.0833
2.14 82.25
2.142 81.3333
2.144 82.5833
2.146 83
2.148 83.8333
2.15 80.8333
2.152 78.8333
2.154 79.75
2.156 79.75
2.158 79.0833
2.16 74.5833
2.162 69.9167
2.164 72.25
2.166 79.6667
2.168 81.8333
2.17 79.3333
2.172 68
2.174 66.3333
2.176 65.8333
2.178 66.6667
2.18 64.6667
2.182 62.9167
2.184 56.9167
2.186 47.5
2.188 52.0833
2.19 53.6667
2.192 55.8333
2.194 53.9167
2.196 45.1667
2.198 41.0833
2.2 38
2.202 32.5833
2.204 21.5833
2.206 13.0833
2.208 7
2.21 1.25
2.212 -5.16667
2.214 -6.41667
2.216 -8.08333
2.218 -9
2.22 -11.3333
2.222 -9.25
2.224 -1.16667
2.226 6.08333
2.228 -5.75
2.23 -14.4167
2.232 -17.0833
2.234 -17.5
2.236 -10.5
2.238 -7.75
2.24 -12.1667
2.242 -7.75
2.244 -9.75
2.246 -22.4167
2.248 -24.8333
2.25 -18.75
2.252 -21.9167
2.254 -26.5
2.256 -23.9167
2.258 -19.8333
2.26 -28.4167
2.262 -32.1667
2.264 -33.8333
2.266 -37.4167
2.268 -40.75
2.27 -37.75
2.272 -36.9167
2.274 -39.75
2.276 -35.8333
2.278 -32.9167
2.28 -28.8333
2.282 -24.8333
2.284 -25.9167
2.286 -26.8333
2.288 -32.9167
2.29 -39.25
2.292 -44.75
2.294 -51.1667
2.296 -57.5
2.298 -62.25
2.3 -61
2.302 -62.25
2.304 -56.1667
2.306 -55.4167
2.308 -55.0833
2.31 -57.8333
2.312 -60
2.314 -65
2.316 -59
2.318 -58.5
2.32 -57
2.322 -56.1667
2.324 -55.3333
2.326 -54.5
2.328 -49.25
2.33 -44.25
2.332 -37.9167
2.334 -31
2.336 -36.25
2.338 -38.75
2.34 -38.6667
2.342 -37.4167
2.344 -37.4167
2.346 -35.0833
2.348 -30.25
2.35 -31.8333
2.352 -31.6667
2.354 -28.9167
2.356 -29.75
2.358 -34.1667
2.36 -35.5833
2.362 -32.6667
2.364 -31.3333
2.366 -33.4167
2.368 -27.1667
2.37 -22.75
2.372 -20.6667
2.374 -23.25
2.376 -31.6667
2.378 -33.75
2.38 -35.4167
2.382 -33
2.384 -23.5833
2.386 -22.3333
2.388 -27.4167
2.39 -23.1667
2.392 -19.9167
2.394 -18.8333
2.396 -20.75
2.398 -26.8333
2.4 -20.8333
2.402 -18.3333
2.404 -18.25
2.406 -19.8333
2.408 -27.0833
2.41 -34.1667
2.412 -44.3333
2.414 -53.6667
2.416 -45.25
2.418 -37.75
2.42 -35
2.422 -34.6667
2.424 -46.6667
2.426 -50.3333
2.428 -55.1667
2.43 -60.1667
2.432 -52.8333
2.434 -53.6667
2.436 -61.6667
2.438 -62.9167
2.44 -64.6667
2.442 -63.75
2.444 -66.25
2.446 -68.3333
2.448 -66.75
2.45 -63.5
2.452 -61.4167
2.454 -61.5833
2.456 -62.9167
2.458 -61.75
2.46 -54.9167
2.462 -49.5833
2.464 -29.8333
2.466 -40.3333
2.468 -49.4167
2.47 -49.6667
2.472 -26.0833
2.474 6.91667
2.476 24.4167
2.478 37
2.48 64.1667
2.482 98.9167
2.484 138.25
2.486 188.75
2.488 223.667
2.49 237.833
2.492 244.833
2.494 236.167
2.496 212.917
2.498 174.833
2.5 134.667
2.502 130.583
2.504 124.083
2.506 89.8333
2.508 51.25
2.51 51.25
2.512 60.9167
2.514 53.4167
2.516 48
2.518 39.5
2.52 13
2.522 -20.3333
2.524 -48.3333
2.526 -51.25
2.528 -45.6667
2.53 -56.1667
2.532 -66.0833
2.534 -62.6667
2.536 -54.9167
2.538 -54.5833
2.54 -75.0833
2.542 -96.75
2.544 -106.5
2.546 -117.083
2.548 -126.333
2.55 -132.25
2.552 -144.75
2.554 -154.583
2.556 -144.917
2.558 -132.583
2.56 -146.333
2.562 -164.25
2.564 -165.333
2.566 -139.5
2.568 -128.083
2.57 -151.333
2.572 -168.75
2.574 -157.667
2.576 -145.083
2.578 -125.833
2.58 -102.5
2.582 -115.167
2.584 -119.667
2.586 -125.25
2.588 -132.25
2.59 -129.917
2.592 -124.417
2.594 -125.667
2.596 -129.417
2.598 -124.417
2.6 -120
2.602 -118
2.604 -117.583
2.606 -112.583
2.608 -108.167
2.61 -101.75
2.612 -96.25
2.614 -102.083
2.616 -106.917
2.618 -111.333
2.62 -111.333
2.622 -104.583
2.624 -99.6667
2.626 -100.833
2.628 -103.75
2.63 -106
2.632 -109
2.634 -105.25
2.636 -98.3333
2.638 -90.3333
2.64 -91.5833
2.642 -90
2.644 -87.1667
2.646 -90.3333
2.648 -89
2.65 -86.6667
2.652 -87.4167
2.654 -86.5
2.656 -80.0833
2.658 -78.4167
2.66 -77.5833
2.662 -76.4167
2.664 -73.9167
2.666 -80.9167
2.668 -82.5833
2.67 -82.5833
2.672 -80.5833
2.674 -78.8333
2.676 -78.3333
2.678 -72.75
2.68 -78.5
2.682 -81.8333
2.684 -77.3333
2.686 -72.6667
2.688 -70.0833
2.69 -74.75
2.692 -74.75
2.694 -83
2.696 -89.0833
2.698 -94
2.7 -102.667
2.702 -75.25
2.704 -46.25
2.706 -15.25
2.708 14.6667
2.71 29.75
2.712 37.75
2.714 47.25
2.716 59.3333
2.718 57.3333
2.72 57.1667
2.722 53
2.724 48.75
2.726 46.8333
2.728 52.0833
2.73 52.5
2.732 47.5
2.734 48.5
2.736 50.1667
2.738 53
2.74 57
2.742 48.75
2.744 42.5833
2.746 32.1667
2.748 18.25
2.75 32.5
2.752 42.4167
2.754 52.4167
2.756 58.5
2.758 55.5
2.76 51.75
2.762 49.25
2.764 44.6667
2.766 41.75
2.768 36.5833
2.77 33.8333
2.772 31.25
2.774 30.5
2.776 33.4167
2.778 35.9167
2.78 39.1667
2.782 37.9167
2.784 38.6667
2.786 45.6667
2.788 51.5833
2.79 35.5
2.792 21.6667
2.794 13
2.796 7.66667
2.798 19.0833
2.8 27.25
2.802 27.6667
2.804 37.8333
2.806 29.5833
2.808 14.25
2.81 8.83333
2.812 12.1667
2.814 11.25
2.816 7.66667
2.818 11.5
2.82 15.75
2.822 8.16667
2.824 4.5
2.826 2.75
2.828 -0.916667
2.83 -5.58333
2.832 -3.66667
2.834 -3.66667
2.836 -7.16667
2.838 -1.16667
2.84 1.33333
2.842 5
2.844 8.41667
2.846 8.25
2.848 -7.41667
2.85 -13.0833
2.852 -18
2.854 -22.75
2.856 -27.6667
2.858 -33
2.86 -32
2.862 -30.25
2.864 -26.9167
2.866 -27.5833
2.868 -28.6667
2.87 -27.25
2.872 -24.5
2.874 -26.0833
2.876 -23.6667
2.878 -18.75
2.88 -20.4167
2.882 -23.6667
2.884 -22.4167
2.886 -25.6667
2.888 -31.75
2.89 -28.8333
2.892 -23.5833
2.894 -19.8333
2.896 -19.4167
2.898 -14.75
2.9 -7.25
2.902 -2.33333
2.904 -2.08333
2.906 -1.91667
2.908 0.5
2.91 3.25
2.912 10.3333
2.914 6.08333
2.916 -0.416667
2.918 -13.3333
2.92 -16.6667
2.922 -4.41667
2.924 2.5
2.926 6.16667
2.928 5.58333
2.93 8.66667
2.932 11.6667
2.934 11.75
2.936 11
2.938 5.33333
2.94 1.58333
2.942 -5.66667
2.944 -11.4167
2.946 -4.41667
2.948 4.33333
2.95 8.58333
2.952 10.9167
2.954 2.33333
2.956 0.75
2.958 -1.75
2.96 -4.83333
2.962 -2.91667
2.964 -5.58333
2.966 -15.1667
2.968 -18.3333
2.97 -16.25
2.972 -14.25
2.974 -15.5
2.976 -16.25
2.978 -10.1667
2.98 -4.16667
2.982 0.75
2.984 3.58333
2.986 -4.58333
2.988 -5.66667
2.99 -1.16667
2.992 2.58333
2.994 11.75
2.996 30.5
2.998 6.66667
3 -23.5833
3.002 -6.5
3.004 13.4167
3.006 -5.75
3.008 2.08333
3.01 63.3333
3.012 106.917
3.014 112.167
3.016 136.583
3.018 188.75
3.02 234.5
3.022 274.083
3.024 307.083
3.026 306.917
3.028 291.167
3.03 277.667
3.032 241.917
3.034 201.333
3.036 183.25
3.038 176.583
3.04 164.5
3.042 115.583
3.044 48.5
3.046 34.1667
3.048 62.0833
3.05 67.5833
3.052 34.8333
3.054 -3.75
3.056 -25.25
3.058 -36.5833
3.06 -25.3333
3.062 -7.33333
3.064 -17.75
3.066 -31.3333
3.068 -17.8333
3.07 1.25
3.072 3.25
3.074 -15.5
3.076 -29.25
3.078 -36.3333
3.08 -59.75
3.082 -75.5833
3.084 -79.8333
3.086 -87.1667
3.088 -91.0833
3.09 -79.5
3.092 -55.3333
3.094 -49.9167
3.096 -70.5
3.098 -85.75
3.1 -79
3.102 -61.25
3.104 -53.5
3.106 -55
3.108 -43.5833
3.11 -22.8333
3.112 -28.4167
3.114 -30.1667
3.116 -32.8333
3.118 -36.8333
3.12 -32.9167
3.122 -27.75
3.124 -29.25
3.126 -32.6667
3.128 -35.8333
3.13 -35.3333
3.132 -38.25
3.134 -41.9167
3.136 -31.5833
3.138 -24.4167
3.14 -15.1667
3.142 -7
3.144 -21.0833
3.146 -31.3333
3.148 -41.0833
3.15 -46.4167
3.152 -29.3333
3.154 -19
3.156 -14.6667
3.158 -11.9167
3.16 -16.4167
3.162 -18.6667
3.164 -14.6667
3.166 -7.41667
3.168 -11.4167
3.17 -16
3.172 -17.9167
3.174 -17.9167
3.176 -7.66667
3.178 -1.16667
3.18 6.83333
3.182 11.9167
3.184 13.9167
3.186 20.75
3.188 22.4167
3.19 24.0833
3.192 16.75
3.194 10.6667
3.196 -5.33333
3.198 -15
3.2 1.41667
3.202 14.75
3.204 27.25
3.206 38.5833
3.208 37.3333
3.21 25.5
3.212 16.3333
3.214 14.75
3.216 19.5
3.218 21.0833
3.22 15.0833
3.222 13.8333
3.224 16.75
3.226 19.0833
3.228 22.25
3.23 22.75
3.232 27
3.234 26.8333
3.236 29.3333
3.238 30.0833
3.24 24.25
3.242 19.9167
3.244 16.6667
3.246 16.25
3.248 15
3.25 17.5833
3.252 15.5
3.254 12.9167
3.256 5.83333
3.258 7.33333
3.26 3.91667
3.262 -4.5
3.264 -1.75
3.266 3.66667
3.268 10.4167
3.27 18.8333
3.272 13.3333
3.274 10.9167
3.276 4.33333
3.278 -6
3.28 -10.8333
3.282 -13
3.284 -15.0833
3.286 -21.1667
3.288 -22.25
3.29 -22.4167
3.292 -21.5833
3.294 -22
3.296 -24.25
3.298 -29.3333
3.3 -31.5833
3.302 -33.8333
3.304 -45.1667
3.306 -49.6667
3.308 -54.4167
3.31 -57.75
3.312 -61.3333
3.314 -60.5833
3.316 -53.75
3.318 -47.6667
3.32 -53.25
3.322 -59.6667
3.324 -60.9167
3.326 -59
3.328 -68
3.33 -74.4167
3.332 -88.5
3.334 -93.1667
3.336 -94.6667
3.338 -106.917
3.34 -109
3.342 -102.5
3.344 -97.9167
3.346 -96.1667
3.348 -87.5833
3.35 -77.75
3.352 -78.8333
3.354 -79.3333
3.356 -77.75
3.358 -78
3.36 -69.5833
3.362 -59
3.364 -50.25
3.366 -45.4167
3.368 -21.0833
3.37 4.58333
3.372 32.1667
3.374 58.9167
3.376 67.4167
3.378 76.3333
3.38 79.25
3.382 82.9167
3.384 88.0833
3.386 90.25
3.388 92.4167
3.39 96.3333
3.392 92.4167
3.394 89.0833
3.396 93.1667
3.398 91.8333
3.4 93.5
3.402 92.5833
3.404 92.5833
3.406 89.5
3.408 93.5
3.41 98.8333
3.412 100.833
3.414 99.5833
3.416 96.8333
3.418 103.167
3.42 110.75
3.422 109.833
3.424 110.667
3.426 109.333
3.428 108.083
3.43 107.417
3.432 98.4167
3.434 103.583
3.436 126.917
3.438 125
3.44 124.417
3.442 124
3.444 123.583
3.446 118.333
3.448 117.5
3.45 118
3.452 119.667
3.454 113
3.456 107.583
3.458 104.917
3.46 104
3.462 106.5
3.464 112.167
3.466 120.417
3.468 121.167
3.47 125.333
3.472 127.333
3.474 125.667
3.476 120.333
3.478 123.25
3.48 127.75
3.482 130.083
3.484 129.167
3.486 127.5
3.488 129.417
3.49 128.583
3.492 123.333
3.494 112.25
3.496 108.583
3.498 105.417
3.5 106.167
3.502 107.833
3.504 103.5
3.506 93.5833
3.508 92.3333
3.51 104.583
3.512 110.667
3.514 112.75
3.516 111.5
3.518 109.833
3.52 110.333
3.522 108.25
3.524 104.417
3.526 112.333
3.528 114.833
3.53 113.5
3.532 113.917
3.534 106.25
3.536 102.083
3.538 93.5
3.54 82.5
3.542 75.1667
3.544 74.75
3.546 73.5833
3.548 71.75
3.55 79
3.552 78
3.554 70.6667
3.556 69.5
3.558 77.75
3.56 81.6667
3.562 82.4167
3.564 83.75
3.566 84.6667
3.568 86.9167
3.57 88.8333
3.572 88.0833
3.574 76.0833
3.576 71.5833
3.578 72.8333
3.58 72.4167
3.582 79.1667
3.584 79.25
3.586 75
3.588 75.4167
3.59 98.4167
3.592 124.917
3.594 149.667
3.596 169.583
3.598 196.833
3.6 234.583
3.602 276.5
3.604 324.583
3.606 358.5
3.608 370.333
3.61 374.083
3.612 368.917
3.614 355.917
3.616 340.083
3.618 291.5
3.62 254.917
3.622 249.25
3.624 226.5
3.626 178.833
3.628 163.5
3.63 174
3.632 168.75
3.634 163.5
3.636 164.75
3.638 148.75
3.64 112.167
3.642 91.4167
3.644 103.167
3.646 121.167
3.648 108.167
3.65 89.5833
3.652 91.8333
3.654 101.167
3.656 93.5833
3.658 79.3333
3.66 65.75
3.662 50.4167
3.664 40.0833
3.666 33
3.668 24.0833
3.67 17.25
3.672 25.1667
3.674 49.6667
3.676 65.1667
3.678 49
3.68 44.9167
3.682 60.5
3.684 72.8333
3.686 63.9167
3.688 50.4167
3.69 45.0833
3.692 60.25
3.694 115.833
3.696 178.5
3.698 185.417
3.7 182.917
3.702 186.167
3.704 187.833
3.706 188.167
3.708 186.583
3.71 189.667
3.712 185.333
3.714 179.75
3.716 175.75
3.718 176.833
3.72 174.833
3.722 172.083
3.724 180.25
3.726 185.417
3.728 192.833
3.73 199.75
3.732 192.5
3.734 186.75
3.736 182
3.738 181.417
3.74 187.333
3.742 190.583
3.744 187.833
3.746 183.417
3.748 178.417
3.75 175.667
3.752 179.167
3.754 186.083
3.756 178.5
3.758 170.333
3.76 164.583
3.762 160.25
3.764 168.417
3.766 174.333
3.768 182.25
3.77 186.667
3.772 181
3.774 182.583
3.776 178.833
3.778 175.25
3.78 184.25
3.782 191.833
3.784 190.25
3.786 194
3.788 194.083
3.79 194.417
3.792 194.833
3.794 193.417
3.796 205.667
3.798 203.917
3.8 204.25
3.802 212.25
3.804 213.833
3.806 215.333
3.808 209.417
3.81 208.167
3.812 213.167
3.814 215.25
3.816 218.083
3.818 217.25
3.82 215.167
3.822 213.833
3.824 215.167
3.826 214.667
3.828 206.667
3.83 200.5
3.832 195.083
3.834 193.5
3.836 195.583
3.838 197.25
3.84 194.75
3.842 192
3.844 193.083
3.846 200.917
3.848 203.417
3.85 200.5
3.852 187.917
3.854 184.25
3.856 182.25
3.858 181.5
3.86 181
3.862 180.25
3.864 175.333
3.866 166.417
3.868 170.083
3.87 171.583
3.872 173.167
3.874 170.917
3.876 176.417
3.878 179.25
3.88 183.417
3.882 185.333
3.884 171.583
3.886 160.167
3.888 151.333
3.89 142.833
3.892 146
3.894 148.833
3.896 151.333
3.898 154.417
3.9 141.167
3.902 136.333
3.904 136.75
3.906 137.083
3.908 133.417
3.91 129.583
3.912 131.25
3.914 135.583
3.916 137.833
3.918 137.833
3.92 130.417
3.922 132.083
3.924 130.667
3.926 120.75
3.928 121.167
3.93 130.083
3.932 121.5
3.934 112.667
3.936 111.083
3.938 110.25
3.94 112.417
3.942 115
3.944 119.833
3.946 121.917
3.948 119.5
3.95 122.25
3.952 123.167
3.954 120.417
3.956 119.083
3.958 118.333
3.96 119.583
3.962 119.917
3.964 114.667
3.966 112.25
3.968 104.667
3.97 96.8333
3.972 83.5833
3.974 89.5
3.976 94.3333
3.978 92.75
3.98 92.75
3.982 92.75
3.984 92.75
3.986 81.75
3.988 79.3333
3.99 78
3.992 77.25
3.994 78.8333
3.996 76.9167
3.998 77.1667
4 79.6667
4.002 72.75
4.004 73.25
4.006 76.5
4.008 72.4167
4.01 74.3333
4.012 77.8333
4.014 76.5
4.016 72.5
4.018 68.3333
4.02 68.3333
4.022 66.0833
4.024 61.75
4.026 56
4.028 56.1667
4.03 53.25
4.032 46.8333
4.034 53.25
4.036 57.4167
4.038 61.3333
4.04 70.3333
4.042 81.25
4.044 85
4.046 82.5833
4.048 89.0833
4.05 94.6667
4.052 96.75
4.054 95.5
4.056 90.3333
4.058 93.9167
4.06 96.3333
4.062 95.9167
4.064 94
4.066 96.4167
4.068 95.0833
4.07 90.6667
4.072 87
4.074 78.9167
4.076 77.6667
4.078 71.5
4.08 63.8333
4.082 70.0833
4.084 76.4167
4.086 82.1667
4.088 86.8333
4.09 85.4167
4.092 80.6667
4.094 69.0833
4.096 63.75
4.098 68.6667
4.1 72
4.102 72
4.104 72.5
4.106 63.4167
4.108 60.9167
4.11 57.3333
4.112 51.6667
4.114 42.6667
4.116 41.4167
4.118 46.4167
4.12 49.6667
4.122 59.9167
4.124 67.0833
4.126 100.083
4.128 105.75
4.13 90.25
4.132 88.9167
4.134 85.25
4.136 95.5
4.138 152.333
4.14 197.917
4.142 206.5
4.144 230.167
4.146 279
4.148 314.417
4.15 343.25
4.152 392.5
4.154 415.083
4.156 368.333
4.158 320
4.16 305.5
4.162 281.25
4.164 255.167
4.166 242.333
4.168 207.333
4.17 145.5
4.172 118.25
4.174 128.583
4.176 119
4.178 104.083
4.18 126
4.182 117.5
4.184 52
4.186 26.9167
4.188 55.9167
4.19 65.9167
4.192 55.4167
4.194 52.4167
4.196 37.3333
4.198 8.5
4.2 14.5833
4.202 36.75
4.204 28.5
4.206 -2.08333
4.208 -22.4167
4.21 -16.25
4.212 -0.666667
4.214 6.5
4.216 16.25
4.218 3
4.22 -25.25
4.222 -6.83333
4.224 32
4.226 16.5833
4.228 -21.1667
4.23 -27.25
4.232 -3.25
4.234 19.1667
4.236 11
4.238 -8.25
4.24 -2.5
4.242 6.41667
4.244 14.3333
4.246 20.5833
4.248 26.5
4.25 35
4.252 36.5
4.254 36.6667
4.256 35
4.258 36
4.26 34
4.262 31.3333
4.264 28
4.266 28.5
4.268 30.75
4.27 32
4.272 32.9167
4.274 30.4167
4.276 28.9167
4.278 31.6667
4.28 48.3333
4.282 56.5
4.284 59
4.286 59.8333
4.288 52.8333
4.29 47.25
4.292 48.4167
4.294 52.9167
4.296 55.3333
4.298 54.75
4.3 56.9167
4.302 60.0833
4.304 68.3333
4.306 77.5833
4.308 88.0833
4.31 95.5
4.312 88.9167
4.314 90.5833
4.316 87
4.318 83.25
4.32 92.25
4.322 97.6667
4.324 93.0833
4.326 94.6667
4.328 105.333
4.33 110.667
4.332 115.917
4.334 119.25
4.336 119.5
4.338 110.917
4.34 104
4.342 105.667
4.344 124.5
4.346 135.75
4.348 139.583
4.35 147.917
4.352 143.083
4.354 140.333
4.356 138.25
4.358 132.583
4.36 130.5
4.362 129.25
4.364 130.083
4.366 129.333
4.368 125.167
4.37 118.25
4.372 112.333
4.374 109
4.376 121.5
4.378 129.667
4.38 133.25
4.382 137.417
4.384 141.917
4.386 147.917
4.388 148.667
4.39 145.083
4.392 131.333
4.394 125.583
4.396 121.75
4.398 118.75
4.4 122.833
4.402 125.667
4.404 124.417
4.406 119.167
4.408 122.75
4.41 123.667
4.412 124.417
4.414 121.25
4.416 121.75
4.418 120.917
4.42 121.25
4.422 119.583
4.424 107
4.426 95.1667
4.428 85.75
4.43 76.9167
4.432 83.3333
4.434 89.6667
4.436 95.0833
4.438 101.667
4.44 96.75
4.442 96.1667
4.444 102.083
4.446 107
4.448 90.6667
4.45 80
4.452 74.9167
4.454 72
4.456 70.4167
4.458 71.1667
4.46 64.3333
4.462 66.3333
4.464 70.6667
4.466 61.25
4.468 62.1667
4.47 71.6667
4.472 74.6667
4.474 72.75
4.476 78.1667
4.478 84.1667
4.48 78.3333
4.482 76.1667
4.484 76.1667
4.486 73.3333
4.488 60.4167
4.49 57.9167
4.492 53.75
4.494 45.5833
4.496 51.3333
4.498 53.25
4.5 56.5
4.502 59.8333
4.504 67.6667
4.506 52.75
4.508 57.75
4.51 59.4167
4.512 61.0833
4.514 62.6667
4.516 60.1667
4.518 61.4167
4.52 64.25
4.522 67.5
4.524 62.4167
4.526 58.9167
4.528 57.75
4.53 57.8333
4.532 52.8333
4.534 52.0833
4.536 53.6667
4.538 48.75
4.54 50.4167
4.542 54.1667
4.544 53.3333
4.546 49.6667
4.548 47.5833
4.55 50.3333
4.552 51.3333
4.554 49.5
4.556 54
4.558 60
4.56 63.4167
4.562 63.0833
4.564 55.8333
4.566 53.25
4.568 50.75
4.57 53.25
4.572 55.6667
4.574 52.4167
4.576 43.0833
4.578 42.75
4.58 53.75
4.582 59.5
4.584 61.8333
4.586 60.3333
4.588 64.75
4.59 65.6667
4.592 63.8333
4.594 60.5833
4.596 59
4.598 56.9167
4.6 51.5833
4.602 47.0833
4.604 54.5
4.606 59.6667
4.608 60.75
4.61 59
4.612 48.75
4.614 47.1667
4.616 44.75
4.618 41.5
4.62 49.9167
4.622 51.1667
4.624 46
4.626 46.5833
4.628 44.75
4.63 43.5833
4.632 39
4.634 34.8333
4.636 35.3333
4.638 36.5833
4.64 36.6667
4.642 34.5833
4.644 34.5833
4.646 35.8333
4.648 42.75
4.65 48.75
4.652 41.8333
4.654 29.75
4.656 41.4167
4.658 84.5833
4.66 112.25
4.662 105.167
4.664 94.3333
4.666 123.833
4.668 177.25
4.67 218.417
4.672 262.833
4.674 305.917
4.676 328.5
4.678 325.917
4.68 306.667
4.682 278.5
4.684 254
4.686 236
4.688 231.417
4.69 227.417
4.692 191.667
4.694 160.75
4.696 182.083
4.698 197.583
4.7 178.917
4.702 190
4.704 215.5
4.706 203.75
4.708 163.583
4.71 113.75
4.712 81.8333
4.714 96.8333
4.716 121.083
4.718 108.833
4.72 86.25
4.722 100
4.724 95.5833
4.726 63.5833
4.728 58.1667
4.73 72.4167
4.732 64.3333
4.734 26.9167
4.736 9.33333
4.738 6
4.74 1.58333
4.742 -2.41667
4.744 -4.08333
4.746 10.5833
4.748 29.1667
4.75 9
4.752 -23.0833
4.754 -15.8333
4.756 4.41667
4.758 11.25
4.76 16.75
4.762 31.8333
4.764 26.3333
4.766 22.3333
4.768 48.8333
4.77 41.0833
4.772 40.5833
4.774 38.9167
4.776 36.0833
4.778 33
4.78 35
4.782 30.3333
4.784 23.5833
4.786 33.4167
4.788 42.5833
4.79 49
4.792 54.0833
4.794 55.4167
4.796 57
4.798 61.0833
4.8 63.9167
4.802 57
4.804 52.4167
4.806 48.5833
4.808 49.5833
4.81 62.5833
4.812 70.4167
4.814 72.3333
4.816 72.75
4.818 70.75
4.82 67.4167
4.822 71.1667
4.824 77.9167
4.826 76
4.828 71
4.83 69.1667
4.832 68.25
4.834 76.1667
4.836 81.0833
4.838 86.9167
4.84 90.75
4.842 87.5
4.844 91.5833
4.846 90.25
4.848 88.9167
4.85 88.6667
4.852 90.3333
4.854 82.0833
4.856 79.25
4.858 82.9167
4.86 85.4167
4.862 87.8333
4.864 88.25
4.866 96.0833
4.868 91.5
4.87 88.5833
4.872 94.3333
4.874 107.583
4.876 113.833
4.878 112.333
4.88 115.667
4.882 111
4.884 108.583
4.886 107.083
4.888 102.417
4.89 96.75
4.892 91
4.894 87.8333
4.896 83
4.898 87.75
4.9 86.6667
4.902 86.3333
4.904 88.5833
4.906 90.1667
4.908 91.4167
4.91 88.25
4.912 85.4167
4.914 87.3333
4.916 94.3333
4.918 95.9167
4.92 92.25
4.922 85.5
4.924 83.3333
4.926 82.5833
4.928 83.8333
4.93 96.25
4.932 105.417
4.934 110.167
4.936 111
4.938 105.333
4.94 101.583
4.942 98.3333
4.944 90.9167
4.946 95.25
4.948 97.1667
4.95 100.5
4.952 101.667
4.954 95.25
4.956 87.9167
4.958 83.0833
4.96 78.4167
4.962 76.4167
4.964 76.4167
4.966 76.0833
4.968 76.5833
4.97 72.1667
4.972 60.5833
4.974 74.75
4.976 92.75
4.978 86.0833
4.98 82.3333
4.982 78.1667
4.984 74.0833
4.986 67.4167
4.988 65.5
4.99 64.6667
4.992 65
4.994 65.0833
4.996 63.0833
4.998 63.4167
5 65.25
5.002 57.3333
5.004 54.4167
5.006 54.4167
5.008 47.0833
5.01 47.5833
5.012 48.4167
5.014 45.5
5.016 39
5.018 40.6667
5.02 44.9167
5.022 47.25
5.024 46.5
5.026 46.3333
5.028 47.1667
5.03 45.1667
5.032 39.5833
5.034 34.0833
5.036 32.8333
5.038 31.5833
5.04 35.3333
5.042 26
5.044 15.8333
5.046 -1
5.048 -7.5
5.05 4.41667
5.052 9.66667
5.054 11.75
5.056 9.83333
5.058 8.5
5.06 8.5
5.062 5.66667
5.064 1.91667
5.066 -3.83333
5.068 -7.25
5.07 -14.75
5.072 -21.1667
5.074 -15.5833
5.076 -9.33333
5.078 -8.25
5.08 -8.66667
5.082 -19.25
5.084 -21.9167
5.086 -26
5.088 -30.0833
5.09 -25.5833
5.092 -26.75
5.094 -35.3333
5.096 -36.9167
5.098 -26.9167
5.1 -21.6667
5.102 -19.5833
5.104 -17.0833
5.106 -11.0833
5.108 -4.16667
5.11 2.41667
5.112 6.16667
5.114 -1.58333
5.116 -4.08333
5.118 -0.833333
5.12 0.833333
5.122 -2.08333
5.124 -8.58333
5.126 4.91667
5.128 11.4167
5.13 11.5
5.132 32.9167
5.134 79.6667
5.136 115
5.138 119.667
5.14 125.583
5.142 153
5.144 183.833
5.146 222.083
5.148 269.583
5.15 294.417
5.152 277.75
5.154 224.917
5.156 173.917
5.158 164.583
5.16 187.417
5.162 184.25
5.164 155.75
5.166 128.417
5.168 93.6667
5.17 82.1667
5.172 103.667
5.174 85.25
5.176 23.25
5.178 -2.33333
5.18 -7.33333
5.182 -7.91667
5.184 13.8333
5.186 24.5
5.188 -11.5
5.19 -47.3333
5.192 -45.4167
5.194 -36.0833
5.196 -22.6667
5.198 -15.75
5.2 -24.3333
5.202 -36.5
5.204 -48.0833
5.206 -57.25
5.208 -72.8333
5.21 -84.6667
5.212 -73.1667
5.214 -55.3333
5.216 -55.1667
5.218 -69.9167
5.22 -84.5
5.222 -94.6667
5.224 -82.6667
5.226 -54.75
5.228 -33.3333
5.23 -47.4167
5.232 -69.0833
5.234 -65.5
5.236 -45.9167
5.238 -26.8333
5.24 -27.5
5.242 -26.75
5.244 -27.25
5.246 -28.9167
5.248 -36.25
5.25 -35.8333
5.252 -42.3333
5.254 -50.5833
5.256 -44.3333
5.258 -39.5
5.26 -37.1667
5.262 -36.25
5.264 -42.4167
5.266 -46.5
5.268 -48.25
5.27 -50.9167
5.272 -45.5833
5.274 -45.1667
5.276 -44
5.278 -38.25
5.28 -31.4167
5.282 -28.1667
5.284 -30.5
5.286 -34.5833
5.288 -33
5.29 -35.75
5.292 -32
5.294 -24.3333
5.296 -17.5833
5.298 -17.5
5.3 -15.0833
5.302 -11.5
5.304 -12.3333
5.306 -11.1667
5.308 -8.08333
5.31 -8.5
5.312 -9.33333
5.314 -6.08333
5.316 -8.25
5.318 -11
5.32 -1.66667
5.322 4.83333
5.324 2
5.326 4.41667
5.328 3.33333
5.33 4.08333
5.332 4.41667
5.334 3.66667
5.336 15.8333
5.338 13.4167
5.34 13.3333
5.342 21.1667
5.344 30.9167
5.346 34.9167
5.348 30.9167
5.35 32.5833
5.352 26.75
5.354 22.3333
5.356 19.1667
5.358 12.25
5.36 22.4167
5.362 29.4167
5.364 38.4167
5.366 45.5833
5.368 36.1667
5.37 27.3333
5.372 19.0833
5.374 13.8333
5.376 26.0833
5.378 33.9167
5.38 37
5.382 40.5
5.384 39.5
5.386 43.1667
5.388 42
5.39 35.4167
5.392 24.5
5.394 22.3333
5.396 22
5.398 22.75
5.4 26.9167
5.402 28.8333
5.404 26.8333
5.406 20.6667
5.408 17.75
5.41 15.5833
5.412 13.9167
5.414 8
5.416 0.5
5.418 -4.41667
5.42 -8.08333
5.422 -13.8333
5.424 -8.91667
5.426 -9
5.428 -6.58333
5.43 -3.75
5.432 -14.9167
5.434 -19.25
5.436 -23.9167
5.438 -27.5833
5.44 -32.5833
5.442 -31.3333
5.444 -24
5.446 -17.5
5.448 -21.1667
5.45 -25.75
5.452 -24.5
5.454 -20.75
5.456 -20.4167
5.458 -21.5833
5.46 -30
5.462 -29.8333
5.464 -27.3333
5.466 -35.4167
5.468 -33.1667
5.47 -22.75
5.472 -33
5.474 -40.9167
5.476 -41.75
5.478 -41.75
5.48 -38.9167
5.482 -38.5
5.484 -36.0833
5.486 -35.6667
5.488 -44
5.49 -41.25
5.492 -40.3333
5.494 -43.25
5.496 -44.3333
5.498 -46
5.5 -45.5
5.502 -45.8333
5.504 -45.5833
5.506 -43
5.508 -46
5.51 -48.75
5.512 -57
5.514 -63.4167
5.516 -69.9167
5.518 -74.3333
5.52 -70.6667
5.522 -69.6667
5.524 -60.9167
5.526 -57.75
5.528 -64.25
5.53 -67.4167
5.532 -70.3333
5.534 -76.5
5.536 -55.75
5.538 -63
5.54 -64.6667
5.542 -51.0833
5.544 -54
5.546 -55.25
5.548 -56.4167
5.55 -57.5833
5.552 -61.4167
5.554 -59.75
5.556 -56.9167
5.558 -53.6667
5.56 -48.3333
5.562 -48.3333
5.564 -46
5.566 -42.3333
5.568 -39.5833
5.57 -35.9167
5.572 -29.6667
5.574 -30
5.576 -32.8333
5.578 -31.1667
5.58 -33.25
5.582 -39
5.584 -30.0833
5.586 -24.3333
5.588 -20.8333
5.59 -19.5
5.592 -14.25
5.594 -9
5.596 -6.58333
5.598 -8.58333
5.6 -5.91667
5.602 -3.66667
5.604 -0.75
5.606 6.25
5.608 2.58333
5.61 -4.58333
5.612 -17.9167
5.614 -22.3333
5.616 -8
5.618 -0.75
5.62 3.33333
5.622 3.16667
5.624 0.75
5.626 1.33333
5.628 -0.833333
5.63 -4.5
5.632 1.58333
5.634 1.58333
5.636 -1.58333
5.638 -4.16667
5.64 -8.16667
5.642 -6.91667
5.644 -10.5833
5.646 -16.75
5.648 -19.0833
5.65 -14.5833
5.652 -10.9167
5.654 -8.25
5.656 -9.66667
5.658 -16.25
5.66 -29.4167
5.662 -36.25
5.664 -32.5833
5.666 -30.5
5.668 -31.6667
5.67 -32.5
5.672 -40.3333
5.674 -42.3333
5.676 -44.75
5.678 -50.0833
5.68 -50.4167
5.682 -49.5833
5.684 -43.0833
5.686 -37.5
5.688 -39.5833
5.69 -23.1667
5.692 -10.5
5.694 4.91667
5.696 32.5
5.698 46.8333
5.7 62.5833
5.702 100.417
5.704 139.083
5.706 161.417
5.708 192.75
5.71 228.5
5.712 250.417
5.714 255.083
5.716 245.583
5.718 233.917
5.72 216.833
5.722 185.333
5.724 171.083
5.726 178.417
5.728 159.833
5.73 127.25
5.732 126.083
5.734 130.917
5.736 125.167
5.738 150.917
5.74 174
5.742 130.583
5.744 70.8333
5.746 52
5.748 48.4167
5.75 48.75
5.752 52.8333
5.754 45.4167
5.756 22
5.758 18.8333
5.76 24.9167
5.762 21.25
5.764 11.8333
5.766 -9.08333
5.768 -41.5
5.77 -63.5833
5.772 -75.1667
5.774 -89.9167
5.776 -101.583
5.778 -107.333
5.78 -105.917
5.782 -95.1667
5.784 -83.75
5.786 -74
5.788 -75.25
5.79 -76.8333
5.792 -71.1667
5.794 -56.9167
5.796 -55.75
5.798 -60.0833
5.8 -41.8333
5.802 -28.8333
5.804 -51.3333
5.806 -57.5
5.808 -58.5
5.81 -60.9167
5.812 -63.8333
5.814 -56.9167
5.816 -48.9167
5.818 -47.1667
5.82 -47.8333
5.822 -52.3333
5.824 -52.4167
5.826 -55.5833
5.828 -59.6667
5.83 -70.4167
5.832 -75.5833
5.834 -78.5833
5.836 -82.5
5.838 -76.5
5.84 -73.5
5.842 -70.3333
5.844 -61.8333
5.846 -50.8333
5.848 -45.0833
5.85 -45.1667
5.852 -46.6667
5.854 -54
5.856 -58.5
5.858 -56.5
5.86 -51.1667
5.862 -44.75
5.864 -45.1667
5.866 -42.75
5.868 -39.0833
5.87 -47.3333
5.872 -53.3333
5.874 -57.9167
5.876 -65.4167
5.878 -56.3333
5.88 -45.75
5.882 -40.3333
5.884 -35.4167
5.886 -33.5
5.888 -31
5.89 -38.3333
5.892 -40.3333
5.894 -32.8333
5.896 -27.5833
5.898 -22.6667
5.9 -20
5.902 -20.0833
5.904 -29.6667
5.906 -36.9167
5.908 -36.5833
5.91 -21.5833
5.912 -14.6667
5.914 -15.5
5.916 -11.3333
5.918 -16.75
5.92 -21.5833
5.922 -25.25
5.924 -32.5833
5.926 -23.5833
5.928 -19.4167
5.93 -12.9167
5.932 -8.16667
5.934 -12.1667
5.936 -16.6667
5.938 -20.3333
5.94 -21.25
5.942 -25.3333
5.944 -26.4167
5.946 -32.0833
5.948 -37.3333
5.95 -25.3333
5.952 -10.5
5.954 -1.25
5.956 3.66667
5.958 -2.08333
5.96 -1.25
5.962 0.833333
5.964 5
5.966 -0.75
5.968 -5.16667
5.97 -13.8333
5.972 -26.3333
5.974 -23.5
5.976 -20.25
5.978 -17.0833
5.98 -17.1667
5.982 -19.1667
5.984 -20.75
5.986 -21.1667
5.988 -23.6667
5.99 -21.6667
5.992 -22.9167
5.994 -22.4167
5.996 -20.8333
5.998 -30.9167
6 -34.9167
6.002 -39
6.004 -42.3333
6.006 -50.75
6.008 -52.4167
6.01 -48.9167
6.012 -45.0833
6.014 -46.3333
6.016 -49.1667
6.018 -46.9167
6.02 -41.1667
6.022 -47.1667
6.024 -50.9167
6.026 -61.9167
6.028 -63.75
6.03 -60.6667
6.032 -69.5833
6.034 -68.4167
6.036 -58.5
6.038 -66.3333
6.04 -73.8333
6.042 -74.25
6.044 -72.9167
6.046 -82.9167
6.048 -88.25
6.05 -91
6.052 -96.6667
6.054 -88.6667
6.056 -76.8333
6.058 -67.1667
6.06 -61.25
6.062 -95.1667
6.064 -83.4167
6.066 -87.25
6.068 -99.5833
6.07 -98.3333
6.072 -90.3333
6.074 -87
6.076 -84.5
6.078 -81.3333
6.08 -78.0833
6.082 -75.1667
6.084 -70.75
6.086 -65.8333
6.088 -76.0833
6.09 -82.5
6.092 -86.5
6.094 -89.4167
6.096 -84.1667
6.098 -77.4167
6.1 -67.5
6.102 -65
6.104 -69.5833
6.106 -68.8333
6.108 -71.6667
6.11 -78.1667
6.112 -73.75
6.114 -70.0833
6.116 -67.8333
6.118 -69.1667
6.12 -70.4167
6.122 -68.25
6.124 -69
6.126 -73.6667
6.128 -70.75
6.13 -67.1667
6.132 -63.5
6.134 -54.9167
6.136 -44
6.138 -42.75
6.14 -47.75
6.142 -43.5
6.144 -48.3333
6.146 -52.9167
6.148 -60.6667
6.15 -72.3333
6.152 -65
6.154 -61.5
6.156 -60.25
6.158 -60.5
6.16 -55.25
6.162 -53.6667
6.164 -55.4167
6.166 -56.25
6.168 -63.0833
6.17 -66.1667
6.172 -74
6.174 -84.25
6.176 -80.9167
6.178 -74.9167
6.18 -70
6.182 -65.8333
6.184 -69.6667
6.186 -74.1667
6.188 -84.8333
6.19 -89.8333
6.192 -83.5
6.194 -80.3333
6.196 -80.1667
6.198 -79.75
6.2 -77.5833
6.202 -74.9167
6.204 -72.4167
6.206 -72.8333
6.208 -79.5833
6.21 -81.1667
6.212 -77.1667
6.214 -74.0833
6.216 -95.4167
6.218 -76.9167
6.22 -40.75
6.222 -15.5
6.224 0.833333
6.226 39.4167
6.228 69.8333
6.23 69.5
6.232 91
6.234 134.75
6.236 172.333
6.238 209.083
6.24 254.5
6.242 302.167
6.244 329.25
6.246 321.833
6.248 280.333
6.25 256.25
6.252 273.083
6.254 263.833
6.256 209.5
6.258 188.167
6.26 186.333
6.262 152.083
6.264 128.583
6.266 119
6.268 112.167
6.27 110.333
6.272 100.833
6.274 70
6.276 24
6.278 3.16667
6.28 37.3333
6.282 69.25
6.284 43
6.286 -6.58333
6.288 -4.33333
6.29 22.8333
6.292 32.0833
6.294 34.9167
6.296 36.6667
6.298 17
6.3 -17.5
6.302 -39.5
6.304 -51.3333
6.306 -57.8333
6.308 -48.8333
6.31 -32.5
6.312 -34.3333
6.314 -52
6.316 -45.1667
6.318 -16.6667
6.32 -20.6667
6.322 -53.75
6.324 -58.0833
6.326 -25.0833
6.328 -3.75
6.33 -6.91667
6.332 -8.91667
6.334 -14.0833
6.336 -16.25
6.338 -19.5833
6.34 -24
6.342 -14.75
6.344 -6.41667
6.346 -5.25
6.348 -5.58333
6.35 -11.3333
6.352 -13.5
6.354 -17.9167
6.356 -24
6.358 -19.5
6.36 -15.5
6.362 -9.08333
6.364 -3.75
6.366 -12.5833
6.368 -18.3333
6.37 -23.5833
6.372 -24.4167
6.374 -9.25
6.376 -0.416667
6.378 2.5
6.38 3.66667
6.382 -6.41667
6.384 -12.25
6.386 -11.25
6.388 -6.58333
6.39 -3.25
6.392 -2.83333
6.394 0
6.396 4.75
6.398 6
6.4 8.5
6.402 12.25
6.404 12.6667
6.406 10.0833
6.408 13.25
6.41 11.6667
6.412 9.33333
6.414 6.91667
6.416 8.25
6.418 0
6.42 -2.91667
6.422 14.6667
6.424 26
6.426 37.4167
6.428 46.8333
6.43 46.4167
6.432 36
6.434 27.5
6.436 27.75
6.438 35
6.44 40.5
6.442 38.3333
6.444 40.6667
6.446 33.75
6.448 28
6.45 23.1667
6.452 15.4167
6.454 23.1667
6.456 26.8333
6.458 32.5833
6.46 37.4167
6.462 38.9167
6.464 36.1667
6.466 34.5833
6.468 35.8333
6.47 33.75
6.472 33.75
6.474 29.25
6.476 25.25
6.478 26.0833
6.48 32.6667
6.482 33.8333
6.484 30.5
6.486 25.25
6.488 26.5
6.49 28.9167
6.492 33.3333
6.494 33.75
6.496 33
6.498 27.5833
6.5 19.0833
6.502 22.8333
6.504 24.5
6.506 25.8333
6.508 24.3333
6.51 23.5833
6.512 21.6667
6.514 20.9167
6.516 18.0833
6.518 15
6.52 11.3333
6.522 10.0833
6.524 9.25
6.526 7
6.528 6.58333
6.53 6.25
6.532 6.58333
6.534 -8.16667
6.536 -15.1667
6.538 -16
6.54 -17.5833
6.542 -20.75
6.544 -27.1667
6.546 -27.9167
6.548 -26.3333
6.55 -24.75
6.552 -23.25
6.554 -28.9167
6.556 -25.5833
6.558 -24
6.56 -34.5
6.562 -34.9167
6.564 -26.75
6.566 -26.5
6.568 -30.5833
6.57 -27.25
6.572 -23.25
6.574 -33.6667
6.576 -42
6.578 -47.5
6.58 -56
6.582 -54
6.584 -46.6667
6.586 -41.5833
6.588 -39.9167
6.59 -49.0833
6.592 -58
6.594 -65.0833
6.596 -72.9167
6.598 -64.25
6.6 -59.4167
6.602 -59.8333
6.604 -60.0833
6.606 -47.3333
6.608 -58.5833
6.61 -48.9167
6.612 -42.75
6.614 -59.3333
6.616 -58.5
6.618 -57.75
6.62 -57.0833
6.622 -56.1667
6.624 -60.9167
6.626 -61.3333
6.628 -60.6667
6.63 -58.6667
6.632 -54.1667
6.634 -54.8333
6.636 -52.9167
6.638 -49.5833
6.64 -46.75
6.642 -43.9167
6.644 -38.1667
6.646 -39.8333
6.648 -37.3333
6.65 -34.5
6.652 -35.3333
6.654 -39.75
6.656 -32.5833
6.658 -27
6.66 -23.25
6.662 -22.75
6.664 -25.6667
6.666 -24.4167
6.668 -26.0833
6.67 -31.5
6.672 -31.75
6.674 -31.4167
6.676 -30.5
6.678 -25.6667
6.68 -26.8333
6.682 -30.5833
6.684 -40.75
6.686 -42
6.688 -21.1667
6.69 -8.08333
6.692 0.833333
6.694 6.66667
6.696 -6.5
6.698 -15
6.7 -26.5
6.702 -38.5833
6.704 -44.1667
6.706 -48.75
6.708 -56.4167
6.71 -63.5
6.712 -56.9167
6.714 -49.3333
6.716 -46.4167
6.718 -45.0833
6.72 -45.0833
6.722 -42.3333
6.724 -40.1667
6.726 -39
6.728 -33.6667
6.73 -34.1667
6.732 -42.0833
6.734 -42.6667
6.736 -42.25
6.738 -40.3333
6.74 -41.3333
6.742 -42.1667
6.744 -46
6.746 -46.4167
6.748 -47.25
6.75 -50.8333
6.752 -52.4167
6.754 -51.4167
6.756 -43.9167
6.758 -38.25
6.76 -38.5
6.762 -48.4167
6.764 -44.6667
6.766 -41.5
6.768 -27.4167
6.77 -1.25
6.772 15.5833
6.774 37
6.776 60.3333
6.778 74.4167
6.78 90.25
6.782 149.75
6.784 241.583
6.786 282.5
6.788 286.417
6.79 288.417
6.792 281
6.794 269.25
6.796 228.917
6.798 184.25
6.8 177.917
6.802 180.083
6.804 152.25
6.806 124.417
6.808 105
6.81 81.8333
6.812 75
6.814 74.5
6.816 54.5
6.818 30.1667
6.82 -10.8333
6.822 -50.5
6.824 -34.9167
6.826 -9.75
6.828 -25.9167
6.83 -63.4167
6.832 -63.8333
6.834 -33.3333
6.836 -21.5
6.838 -29.25
6.84 -41.75
6.842 -60.25
6.844 -81.75
6.846 -98.8333
6.848 -96.8333
6.85 -82.9167
6.852 -80.5
6.854 -100
6.856 -114.583
6.858 -99.25
6.86 -81.75
6.862 -84.1667
6.864 -79.25
6.866 -67.5
6.868 -67.1667
6.87 -80.5833
6.872 -76.75
6.874 -43.5
6.876 -38.9167
6.878 -49.5833
6.88 -53.75
6.882 -59.1667
6.884 -65.5833
6.886 -58.9167
6.888 -51.25
6.89 -50.5833
6.892 -51.3333
6.894 -50.8333
6.896 -46.6667
6.898 -45.8333
6.9 -45.9167
6.902 -47.1667
6.904 -45.4167
6.906 -41.5
6.908 -38.5833
6.91 -42.1667
6.912 -44.25
6.914 -45.9167
6.916 -42.3333
6.918 -39.8333
6.92 -41.0833
6.922 -48
6.924 -56.6667
6.926 -50.5
6.928 -50.5833
6.93 -43.9167
6.932 -33.3333
6.934 -24.25
6.936 -23.1667
6.938 -19.5
6.94 -14.5833
6.942 -19.5
6.944 -21.6667
6.946 -22.5833
6.948 -25.5833
6.95 -23.1667
6.952 -18.25
6.954 -18.8333
6.956 -19.0833
6.958 -11.3333
6.96 -5.66667
6.962 -9.66667
6.964 -8.58333
6.966 -7.25
6.968 -6.5
6.97 -6
6.972 -7
6.974 -2.41667
6.976 -8.58333
6.978 -12.25
6.98 -8.08333
6.982 -2.08333
6.984 2.5
6.986 -0.916667
6.988 0.75
6.99 12.5
6.992 2.58333
6.994 3.33333
6.996 3.33333
6.998 3.25
7 3.16667
7.002 0.5
7.004 2.75
7.006 6.41667
7.008 10.5
7.01 12.25
7.012 11.8333
7.014 14.25
7.016 17.9167
7.018 15.25
7.02 19.5
7.022 26.0833
7.024 25.25
7.026 18.3333
7.028 15
7.03 7.25
7.032 -3.16667
7.034 8.58333
7.036 21.1667
7.038 31.5833
7.04 39.25
7.042 31.3333
7.044 27.5833
7.046 21.1667
7.048 11.0833
7.05 9.41667
7.052 9.33333
7.054 9.33333
7.056 14.1667
7.058 10.25
7.06 5.25
7.062 -5.66667
7.064 -7.75
7.066 2.58333
7.068 7.33333
7.07 8.91667
7.072 6.41667
7.074 -0.5
7.076 -6.16667
7.078 -14.75
7.08 -24
7.082 -17.5
7.084 -17.0833
7.086 -20.1667
7.088 -22
7.09 -21.25
7.092 -17.4167
7.094 -18.6667
7.096 -22.3333
7.098 -22.8333
7.1 -19.5833
7.102 -17.5833
7.104 -15.5
7.106 -14.4167
7.108 -17.1667
7.11 -26.4167
7.112 -29.75
7.114 -33.75
7.116 -36.1667
7.118 -42
7.12 -47.1667
7.122 -45.9167
7.124 -44.75
7.126 -44.75
7.128 -46.75
7.13 -56
7.132 -61
7.134 -60.1667
7.136 -60.1667
7.138 -34.5833
7.14 -16.6667
7.142 -0.916667
7.144 -2.41667
7.146 -30.0833
7.148 -50.9167
7.15 -19.5
7.152 29.6667
7.154 53
7.156 71.3333
7.158 100.833
7.16 121.167
7.162 144.667
7.164 183.417
7.166 221.25
7.168 232.333
7.17 245.083
7.172 243.25
7.174 170.417
7.176 81.6667
7.178 76.1667
7.18 97.1667
7.182 72.4167
7.184 35.8333
7.186 16.25
7.188 11
7.19 31.9167
7.192 47.5833
7.194 45.5833
7.196 58.6667
7.198 61.4167
7.2 44.75
7.202 57.8333
7.204 81.3333
7.206 62.6667
7.208 26
7.21 0.5
7.212 -8.25
7.214 8.66667
7.216 11.4167
7.218 -23.5833
7.22 -57.0833
7.222 -50.75
7.224 -36.3333
7.226 -47.25
7.228 -70.1667
7.23 -67.6667
7.232 -50.3333
7.234 -52.8333
7.236 -65.0833
7.238 -49.9167
7.24 -30.5
7.242 -37.9167
7.244 -43.1667
7.246 -39.5833
7.248 -29.25
7.25 -21.5
7.252 -25.5
7.254 -25.1667
7.256 -35.75
7.258 -36.5833
7.26 -38.6667
7.262 -41.75
7.264 -38.9167
7.266 -32.5833
7.268 -33
7.27 -35
7.272 -41.1667
7.274 -41.8333
7.276 -45.0833
7.278 -49.9167
7.28 -49.1667
7.282 -46.3333
7.284 -41
7.286 -36.9167
7.288 -31.6667
7.29 -31.25
7.292 -30
7.294 -24.5
7.296 -23.5833
7.298 -23.0833
7.3 -29
7.302 -35.3333
7.304 -29.4167
7.306 -26
7.308 -16.25
7.31 -3.16667
7.312 -0.75
7.314 -2.75
7.316 -2.41667
7.318 0
7.32 -4.5
7.322 -5.25
7.324 -4.83333
7.326 -6.91667
7.328 1.25
7.33 8.5
7.332 10.5
7.334 12.5833
7.336 15.4167
7.338 18.75
7.34 12.75
7.342 11.75
7.344 16.5833
7.346 20.3333
7.348 24
7.35 25.5833
7.352 37.75
7.354 33.6667
7.356 32.1667
7.358 38.1667
7.36 37.6667
7.362 39
7.364 32.25
7.366 30.1667
7.368 37.0833
7.37 39.5833
7.372 43.0833
7.374 43.25
7.376 38.25
7.378 34.0833
7.38 32.5
7.382 29.4167
7.384 21.5
7.386 15.0833
7.388 9.25
7.39 6.66667
7.392 22.4167
7.394 36.1667
7.396 46.0833
7.398 55.3333
7.4 44
7.402 41.5833
7.404 33.6667
7.406 21.5833
7.408 17.5833
7.41 15.9167
7.412 15.4167
7.414 16.9167
7.416 22.3333
7.418 23.0833
7.42 19.5
7.422 12.5
7.424 12.75
7.426 14.75
7.428 17.1667
7.43 15.5
7.432 3.75
7.434 -5.41667
7.436 -13.1667
7.438 -22.75
7.44 -24.4167
7.442 -26
7.444 -26.1667
7.446 -24.8333
7.448 -28.0833
7.45 -26.9167
7.452 -26.0833
7.454 -24.4167
7.456 -28.4167
7.458 -26.5
7.46 -18.9167
7.462 -12
7.464 -18.75
7.466 -24.9167
7.468 -25.75
7.47 -23.4167
7.472 -24.0833
7.474 -24
7.476 -31.6667
7.478 -30.5
7.48 -19.8333
7.482 -24.8333
7.484 -19.5833
7.486 -5.75
7.488 -16.75
7.49 -26.5833
7.492 -29.3333
7.494 -30.5833
7.496 -21.5
7.498 -16.5833
7.5 -9.41667
7.502 -4.91667
7.504 -20.75
7.506 -25.5833
7.508 -33.5
7.51 -43.75
7.512 -41.1667
7.514 -41.9167
7.516 -40.6667
7.518 -40.3333
7.52 -28.0833
7.522 -21.1667
7.524 -19.4167
7.526 -17.75
7.528 -11.25
7.53 -6.41667
7.532 -24.4167
7.534 -19.8333
7.536 -17.8333
7.538 -15.6667
7.54 -13.5833
7.542 -19
7.544 -20.6667
7.546 -21.0833
7.548 -20.3333
7.55 -26.0833
7.552 -29.8333
7.554 -30.9167
7.556 -31.0833
7.558 -36.25
7.56 -35.8333
7.562 -33.1667
7.564 -36.6667
7.566 -35.3333
7.568 -33.0833
7.57 -34.25
7.572 -39.0833
7.574 -36.1667
7.576 -32.5
7.578 -30.5
7.58 -31.5833
7.582 -37.8333
7.584 -38.25
7.586 -41.5
7.588 -48.5
7.59 -38.6667
7.592 -29.6667
7.594 -20.5833
7.596 -7.66667
7.598 -17.75
7.6 -28.75
7.602 -46.25
7.604 -54.75
7.606 -53.1667
7.608 -52.6667
7.61 -55.6667
7.612 -62.5833
7.614 -53
7.616 -46.75
7.618 -43.1667
7.62 -41.0833
7.622 -37.75
7.624 -38.9167
7.626 -43.4167
7.628 -47
7.63 -51.5833
7.632 -50.75
7.634 -54.9167
7.636 -61.3333
7.638 -58.0833
7.64 -52.1667
7.642 -47.25
7.644 -42.25
7.646 -47.25
7.648 -51.3333
7.65 -61.75
7.652 -66.25
7.654 -60.25
7.656 -55.6667
7.658 -54.4167
7.66 -52.8333
7.662 -46
7.664 -40.5
7.666 -35.6667
7.668 -33.6667
7.67 -42.6667
7.672 -44.75
7.674 -40.5833
7.676 -38.0833
7.678 -42.75
7.68 -55.75
7.682 -38.9167
7.684 -9.75
7.686 3.33333
7.688 3.58333
7.69 0
7.692 27.3333
7.694 70.75
7.696 100.667
7.698 140.75
7.7 205.667
7.702 256.25
7.704 263.833
7.706 266
7.708 253.417
7.71 211.917
7.712 179.833
7.714 161.5
7.716 138.75
7.718 121.583
7.72 111
7.722 88.5833
7.724 61.75
7.726 50.5833
7.728 46
7.73 32.5
7.732 43.5833
7.734 63.3333
7.736 20.25
7.738 -36.3333
7.74 -34.25
7.742 -17.75
7.744 -19.5833
7.746 -17.8333
7.748 -23
7.75 -40.25
7.752 -40.6667
7.754 -49.1667
7.756 -68.25
7.758 -74
7.76 -64.25
7.762 -63
7.764 -78.5
7.766 -100
7.768 -114.583
7.77 -117.917
7.772 -104.25
7.774 -86.4167
7.776 -98.5833
7.778 -117.5
7.78 -124.083
7.782 -118.25
7.784 -97.5833
7.786 -83.3333
7.788 -82.8333
7.79 -83.4167
7.792 -77.5
7.794 -70.6667
7.796 -68.25
7.798 -63.4167
7.8 -59.75
7.802 -57.1667
7.804 -63.5
7.806 -61.9167
7.808 -66.6667
7.81 -74.0833
7.812 -63.75
7.814 -56.5
7.816 -51.4167
7.818 -48.3333
7.82 -50.75
7.822 -52.1667
7.824 -51.25
7.826 -51.6667
7.828 -50.75
7.83 -50.75
7.832 -50
7.834 -44.8333
7.836 -34.9167
7.838 -29.6667
7.84 -30
7.842 -32.0833
7.844 -38.1667
7.846 -44
7.848 -42.6667
7.85 -38.0833
7.852 -28.5
7.854 -27.1667
7.856 -23.6667
7.858 -18.6667
7.86 -26.5
7.862 -29
7.864 -30.1667
7.866 -34.75
7.868 -27.25
7.87 -18.3333
7.872 -14.6667
7.874 -11.8333
7.876 -11.3333
7.878 -9
7.88 -16.1667
7.882 -18.25
7.884 -13.4167
7.886 -11.3333
7.888 -9.33333
7.89 -9.5
7.892 -7.83333
7.894 -17.4167
7.896 -24.8333
7.898 -24.5
7.9 -22.4167
7.902 -22
7.904 -29.1667
7.906 -31.6667
7.908 -33.25
7.91 -34.4167
7.912 -34.5833
7.914 -38.25
7.916 -33
7.918 -30
7.92 -24.9167
7.922 -21.1667
7.924 -25.0833
7.926 -29.5833
7.928 -33.25
7.93 -33.25
7.932 -31.3333
7.934 -28.9167
7.936 -30.5833
7.938 -32.5
7.94 -35.3333
7.942 -30.1667
7.944 -30.0833
7.946 -35.25
7.948 -41.1667
7.95 -40.3333
7.952 -38.25
7.954 -35
7.956 -8.08333
7.958 -6
7.96 -29.6667
7.962 -43.9167
7.964 -44.75
7.966 -43.9167
7.968 -43.0833
7.97 -42.25
7.972 -43.25
7.974 -40.3333
7.976 -35.6667
7.978 -30.8333
7.98 -37.0833
7.982 -40.25
7.984 -41.0833
7.986 -40.5833
7.988 -52.1667
7.99 -56.0833
7.992 -57.1667
7.994 -65.75
7.996 -63.4167
7.998 -60.5
8 -61.3333
8.002 -65.8333
8.004 -74.9167
8.006 -78
8.008 -83.1667
8.01 -91.8333
8.012 -93.1667
8.014 -91.0833
8.016 -91.4167
8.018 -96.3333
8.02 -110.667
8.022 -119.167
8.024 -127.25
8.026 -131.417
8.028 -115
8.03 -105.25
8.032 -101.5
8.034 -89.0833
8.036 -89.3333
8.038 -91.8333
8.04 -97.6667
8.042 -107.25
8.044 -105.25
8.046 -102.833
8.048 -103.333
8.05 -105.417
8.052 -107.083
8.054 -108.917
8.056 -114.583
8.058 -119.667
8.06 -120.833
8.062 -118.333
8.064 -120.833
8.066 -124.833
8.068 -124.5
8.07 -122.083
8.072 -120.75
8.074 -119.5
8.076 -120.833
8.078 -125.083
8.08 -136.333
8.082 -141.083
8.084 -128.917
8.086 -120.75
8.088 -116.833
8.09 -111.417
8.092 -116.25
8.094 -115.417
8.096 -115.833
8.098 -118.333
8.1 -115.083
8.102 -110.667
8.104 -100
8.106 -91.0833
8.108 -142
8.11 -135.417
8.112 -103.417
8.114 -91
8.116 -98.4167
8.118 -110.333
8.12 -111.5
8.122 -78.4167
8.124 -15.5833
8.126 45
8.128 56.3333
8.13 49.5
8.132 81.3333
8.134 139.583
8.136 195.167
8.138 234.583
8.14 256.5
8.142 265.083
8.144 241.25
8.146 175.25
8.148 109.25
8.15 91.5833
8.152 101.667
8.154 82.9167
8.156 32.4167
8.158 -32.1667
8.16 -67.3333
8.162 -65.5833
8.164 -66.75
8.166 -76.5833
8.168 -87.4167
8.17 -118
8.172 -148.75
8.174 -145.5
8.176 -129.333
8.178 -117.167
8.18 -120.75
8.182 -138.167
8.184 -149.25
8.186 -135.083
8.188 -131.75
8.19 -154.417
8.192 -158.083
8.194 -156.5
8.196 -183.917
8.198 -200.833
8.2 -197.667
8.202 -180.417
8.204 -166.75
8.206 -176.5
8.208 -193.167
8.21 -190.583
8.212 -162.333
8.214 -135.833
8.216 -138.667
8.218 -158.583
8.22 -177
8.222 -145.167
8.224 -109.917
8.226 -123.833
8.228 -128.667
8.23 -135.083
8.232 -142.833
8.234 -133.417
8.236 -124.5
8.238 -122.167
8.24 -121.917
8.242 -126.083
8.244 -125.833
8.246 -127.833
8.248 -131.333
8.25 -129.833
8.252 -129.333
8.254 -126.5
8.256 -125
8.258 -127.75
8.26 -131.333
8.262 -134.667
8.264 -133.5
8.266 -123.667
8.268 -118.5
8.27 -118.833
8.272 -120.75
8.274 -125.25
8.276 -128.5
8.278 -124.833
8.28 -117.917
8.282 -108.25
8.284 -108.583
8.286 -106.5
8.288 -102.583
8.29 -97.5
8.292 -93.0833
8.294 -87.5
8.296 -84.3333
8.298 -95.5833
8.3 -100.417
8.302 -110.583
8.304 -121.583
8.306 -111.417
8.308 -103.167
8.31 -104.917
8.312 -101.167
8.314 -90.75
8.316 -85.3333
8.318 -80.6667
8.32 -76.9167
8.322 -70.4167
8.324 -73.6667
8.326 -74.4167
8.328 -67.5
8.33 -54.8333
8.332 -47.9167
8.334 -49.1667
8.336 -44.6667
8.338 -44.25
8.34 -45.0833
8.342 -44.6667
8.344 -48
8.346 -33
8.348 -23.4167
8.35 -11.75
8.352 -1.5
8.354 -3.25
8.356 -7
8.358 -9.33333
8.36 -8.91667
8.362 -4.91667
8.364 -2.08333
8.366 -3.25
8.368 -4.91667
8.37 -6
8.372 0.0833333
8.374 0.833333
8.376 -2.75
8.378 -14.25
8.38 -15.1667
8.382 -14.5833
8.384 -13.0833
8.386 -7.25
8.388 -3.66667
8.39 -4.16667
8.392 -8.5
8.394 -10.1667
8.396 -8.91667
8.398 -7.83333
8.4 -9.83333
8.402 -17.4167
8.404 -23.1667
8.406 -27.8333
8.408 -34.0833
8.41 -41.5
8.412 -47.9167
8.414 -52.8333
8.416 -56.5
8.418 -55.75
8.42 -55.4167
8.422 -54.9167
8.424 -53.5
8.426 -64.5833
8.428 -70.25
8.43 -69.9167
8.432 -70.3333
8.434 -64.6667
8.436 -63.9167
8.438 -57.4167
8.44 -48.5
8.442 -56.75
8.444 -64.5
8.446 -79.6667
8.448 -85.8333
8.45 -69.9167
8.452 -67.0833
8.454 -54.0833
8.456 -32.6667
8.458 -52.4167
8.46 -70.3333
8.462 -81.3333
8.464 -91.5
8.466 -79.3333
8.468 -70.3333
8.47 -59.4167
8.472 -50.4167
8.474 -60.5833
8.476 -60.6667
8.478 -62.5833
8.48 -68.4167
8.482 -61.4167
8.484 -58.9167
8.486 -54.5
8.488 -50.9167
8.49 -46.3333
8.492 -44
8.494 -46.75
8.496 -49.6667
8.498 -46.8333
8.5 -47.8333
8.502 -48.6667
8.504 -48.4167
8.506 -37.5
8.508 -31.4167
8.51 -17.0833
8.512 -2.33333
8.514 -3.25
8.516 -8.83333
8.518 -12
8.52 -15.4167
8.522 -18.8333
8.524 -21.3333
8.526 -20.0833
8.528 -17.0833
8.53 -13.9167
8.532 -9.41667
8.534 -9.33333
8.536 -6.41667
8.538 -2.33333
8.54 -8.41667
8.542 -8.83333
8.544 -6.5
8.546 -11.5
8.548 -11.75
8.55 -10.3333
8.552 -12.25
8.554 -17.9167
8.556 -19.8333
8.558 -18.5
8.56 -19.0833
8.562 -22.9167
8.564 -19.5
8.566 -16.3333
8.568 -15.5
8.57 -19.3333
8.572 -29.25
8.574 -33.75
8.576 -38.0833
8.578 -37.75
8.58 -36.5833
8.582 -41
8.584 -52.0833
8.586 -53.25
8.588 -45.5833
8.59 -42.3333
8.592 -42.4167
8.594 -46.3333
8.596 -41.8333
8.598 -39.4167
8.6 -39.4167
8.602 -41.0833
8.604 -48
8.606 -53
8.608 -61.3333
8.61 -69.1667
8.612 -72.4167
8.614 -69.6667
8.616 -71.5
8.618 -75.1667
8.62 -72.6667
8.622 -67.4167
8.624 -63.5
8.626 -59.3333
8.628 -57.4167
8.63 -60.0833
8.632 -69.5
8.634 -72.75
8.636 -58.9167
8.638 -51.75
8.64 -47.5833
8.642 -43.1667
8.644 -45.1667
8.646 -43.1667
8.648 -41.5
8.65 -42.6667
8.652 -41.4167
8.654 -38.3333
8.656 -29.25
8.658 -21.9167
8.66 -29.75
8.662 -34.5833
8.664 -28.5
8.666 13.75
8.668 68.4167
8.67 63.8333
8.672 39.9167
8.674 76.8333
8.676 142.25
8.678 189.25
8.68 211.5
8.682 237.5
8.684 266.833
8.686 275.417
8.688 257.75
8.69 222.25
8.692 191.417
8.694 200
8.696 218.333
8.698 197.25
8.7 142.833
8.702 109.333
8.704 114.75
8.706 112.25
8.708 109
8.71 147
8.712 178.167
8.714 124.083
8.716 52.0833
8.718 57
8.72 76.9167
8.722 68.4167
8.724 52.9167
8.726 27.5833
8.728 3.25
8.73 -7.16667
8.732 -18.1667
8.734 -15.4167
8.736 10.0833
8.738 8.91667
8.74 -21.9167
8.742 -56.9167
8.744 -76.9167
8.746 -64.6667
8.748 -43.25
8.75 -47.1667
8.752 -56.0833
8.754 -59.3333
8.756 -72.25
8.758 -78.8333
8.76 -58.9167
8.762 -50.0833
8.764 -63.1667
8.766 -57.0833
8.768 -44.3333
8.77 -42.1667
8.772 -21.5833
8.774 -4.5
8.776 -19.5
8.778 -27.75
8.78 -28.5833
8.782 -31
8.784 -34.5
8.786 -31.3333
8.788 -25.1667
8.79 -25.75
8.792 -28.5833
8.794 -19.0833
8.796 -12.4167
8.798 -8.58333
8.8 -6.08333
8.802 -11
8.804 -10.5
8.806 -7.75
8.808 -6.16667
8.81 -15.3333
8.812 -22.25
8.814 -28.5833
8.816 -30.25
8.818 -16.5
8.82 -9.33333
8.822 -8.08333
8.824 -8.58333
8.826 -11.4167
8.828 -14.6667
8.83 -11.3333
8.832 -4.75
8.834 4.08333
8.836 6.16667
8.838 10.5833
8.84 17.1667
8.842 14.25
8.844 15.0833
8.846 17.1667
8.848 15.6667
8.85 3.75
8.852 -2.08333
8.854 -12.8333
8.856 -24
8.858 -16.3333
8.86 -8.91667
8.862 -11
8.864 -7.83333
8.866 1.91667
8.868 6.5
8.87 11.0833
8.872 13.5
8.874 18.25
8.876 11.8333
8.878 6.91667
8.88 10.5
8.882 21.6667
8.884 26.8333
8.886 24.5833
8.888 27.0833
8.89 25.9167
8.892 24.6667
8.894 24.75
8.896 21.1667
8.898 19.9167
8.9 16.9167
8.902 16.8333
8.904 14.6667
8.906 20
8.908 19
8.91 19.0833
8.912 22.6667
8.914 17.1667
8.916 13.4167
8.918 5.33333
8.92 -3.08333
8.922 9.25
8.924 23.5833
8.926 33
8.928 36.9167
8.93 31.8333
8.932 30.5833
8.934 30.9167
8.936 32.5
8.938 34.5833
8.94 35.4167
8.942 31.5
8.944 23.75
8.946 26.75
8.948 28.3333
8.95 29.9167
8.952 27.75
8.954 24.25
8.956 23.1667
8.958 22.8333
8.96 21.1667
8.962 15.8333
8.964 8.75
8.966 4.5
8.968 0.416667
8.97 6.5
8.972 11.3333
8.974 15.75
8.976 21.9167
8.978 2.08333
8.98 -9.41667
8.982 -14.5
8.984 -20.6667
8.986 -22.25
8.988 -24.8333
8.99 -21.5
8.992 -15.9167
8.994 -20.4167
8.996 -40.5833
8.998 -30.0833
9 -24.3333
9.002 -19.5833
9.004 -13.9167
9.006 -19.1667
9.008 -19.8333
9.01 -19.25
9.012 -17.9167
9.014 -26.0833
9.016 -33
9.018 -37
9.02 -39.75
9.022 -32.25
9.024 -25.25
9.026 -15.4167
9.028 -12.8333
9.03 -19
9.032 -19.8333
9.034 -24.5
9.036 -32.4167
9.038 -29.75
9.04 -25.1667
9.042 -22.75
9.044 -23.6667
9.046 -27.6667
9.048 -26
9.05 -26.8333
9.052 -32.0833
9.054 -28.1667
9.056 -25.6667
9.058 -22.8333
9.06 -15.75
9.062 -21.1667
9.064 -25.5
9.066 -36.3333
9.068 -37.75
9.07 -30.5
9.072 -26.0833
9.074 -25.4167
9.076 -28.4167
9.078 -32.25
9.08 -33.0833
9.082 -36.3333
9.084 -41.0833
9.086 -24.75
9.088 -14.6667
9.09 -8.08333
9.092 -0.75
9.094 -2.08333
9.096 1.33333
9.098 -0.416667
9.1 -3.75
9.102 -7.25
9.104 -4.75
9.106 -3.16667
9.108 -2.33333
9.11 2.41667
9.112 0
9.114 -9
9.116 -11.6667
9.118 -9
9.12 -7.66667
9.122 -10.5833
9.124 -12.1667
9.126 -8
9.128 -3.91667
9.13 -0.416667
9.132 0.416667
9.134 -5.5
9.136 -7.58333
9.138 -3.66667
9.14 -0.833333
9.142 -8.66667
9.144 17.5
9.146 43.9167
9.148 45.5
9.15 29.3333
9.152 46.5833
9.154 87
9.156 106.167
9.158 116.333
9.16 138.667
9.162 177.167
9.164 240
9.166 294.333
9.168 311.083
9.17 305.833
9.172 276.917
9.174 230.583
9.176 205
9.178 202.083
9.18 200.417
9.182 208.583
9.184 198.083
9.186 145.583
9.188 100.75
9.19 86.1667
9.192 93.1667
9.194 113.083
9.196 110.167
9.198 55.3333
9.2 1.58333
9.202 15
9.204 58.5833
9.206 54.4167
9.208 23.6667
9.21 17.9167
9.212 26.75
9.214 38.75
9.216 34.9167
9.218 6.25
9.22 -20.25
9.222 -49.5833
9.224 -78
9.226 -62.25
9.228 -37
9.23 -49.6667
9.232 -57.75
9.234 -43
9.236 -37.5833
9.238 -55.4167
9.24 -63.5
9.242 -43.5833
9.244 -37.75
9.246 -37.0833
9.248 -27.75
9.25 -21.6667
9.252 -18.6667
9.254 -7.66667
9.256 0.25
9.258 -7.91667
9.26 -13.4167
9.262 -14.5833
9.264 -17
9.266 -20.5833
9.268 -19.5
9.27 -14.5
9.272 -16.5833
9.274 -21
9.276 -9.08333
9.278 1.08333
9.28 8
9.282 14.25
9.284 5.58333
9.286 3.16667
9.288 2.83333
9.29 1.16667
9.292 5.33333
9.294 7
9.296 8.91667
9.298 15.5
9.3 23
9.302 27.3333
9.304 26
9.306 23.1667
9.308 27.6667
9.31 26.8333
9.312 32.6667
9.314 42.3333
9.316 47.5833
9.318 46
9.32 47.1667
9.322 49.6667
9.324 51.0833
9.326 54.0833
9.328 58.75
9.33 59.9167
9.332 69.25
9.334 80.0833
9.336 85.75
9.338 91.5
9.34 86.75
9.342 83.9167
9.344 71.1667
9.346 64.6667
9.348 66.5
9.35 68.5
9.352 70
9.354 70.5
9.356 81.4167
9.358 78.5
9.36 77.9167
9.362 85.25
9.364 85.75
9.366 86.1667
9.368 78.9167
9.37 76.5833
9.372 80.8333
9.374 83.1667
9.376 86.5833
9.378 87
9.38 85.25
9.382 83.5833
9.384 84.5833
9.386 83.8333
9.388 82.9167
9.39 79.25
9.392 76.5
9.394 77.4167
9.396 79.3333
9.398 82.5833
9.4 81.5
9.402 79.6667
9.404 72.8333
9.406 74.0833
9.408 70
9.41 61.5
9.412 57.75
9.414 58.25
9.416 60.25
9.418 63.4167
9.42 69.5833
9.422 71.25
9.424 68.25
9.426 62.25
9.428 60.25
9.43 58.5833
9.432 57.3333
9.434 52.0833
9.436 44.6667
9.438 38.5833
9.44 33.75
9.442 26.8333
9.444 22.75
9.446 17.0833
9.448 13.75
9.45 10.8333
9.452 5.66667
9.454 5.58333
9.456 5.16667
9.458 5.66667
9.46 4.5
9.462 6.83333
9.464 15.4167
9.466 23.0833
9.468 11.5
9.47 0.5
9.472 -4.91667
9.474 -7.83333
9.476 0.833333
9.478 7.66667
9.48 7
9.482 15
9.484 7.25
9.486 -6.75
9.488 -10.9167
9.49 -6.41667
9.492 -17.9167
9.494 -25.75
9.496 -26.1667
9.498 -25.6667
9.5 -24.0833
9.502 -23.25
9.504 -19.9167
9.506 -19.6667
9.508 -27.1667
9.51 -26.3333
9.512 -27.6667
9.514 -32.5833
9.516 -32.4167
9.518 -41.9167
9.52 -39.75
9.522 -30.9167
9.524 -25.25
9.526 -19.5833
9.528 -14
9.53 -18.75
9.532 -18.3333
9.534 -16.6667
9.536 -13.8333
9.538 -24.3333
9.54 -31.1667
9.542 -35.6667
9.544 -38.1667
9.546 -34.25
9.548 -27.6667
9.55 -18.3333
9.552 -16.3333
9.554 -9.33333
9.556 -2
9.558 0.833333
9.56 0.916667
9.562 -1.08333
9.564 0.916667
9.566 0.833333
9.568 -2.41667
9.57 -4.83333
9.572 -3.08333
9.574 -3.83333
9.576 -9.25
9.578 -6.5
9.58 -2.16667
9.582 2.83333
9.584 11.8333
9.586 20
9.588 20.75
9.59 15.1667
9.592 19.0833
9.594 17.0833
9.596 16.3333
9.598 11.3333
9.6 3.16667
9.602 13
9.604 19.9167
9.606 24.25
9.608 27.1667
9.61 21.8333
9.612 19.5
9.614 13.8333
9.616 9
9.618 14.5833
9.62 20.8333
9.622 22.0833
9.624 21.6667
9.626 10.4167
9.628 10.4167
9.63 9.25
9.632 8
9.634 12.5833
9.636 12.25
9.638 4.41667
9.64 3.58333
9.642 6
9.644 6.08333
9.646 2.75
9.648 -0.0833333
9.65 -0.333333
9.652 1.66667
9.654 3.08333
9.656 2
9.658 -7.33333
9.66 -12.1667
9.662 -11.0833
9.664 -11.25
9.666 8.58333
9.668 27.3333
9.67 28.5
9.672 39.0833
9.674 60.1667
9.676 73.5833
9.678 104.167
9.68 154.917
9.682 186.25
9.684 192.333
9.686 222.917
9.688 266.75
9.69 283.167
9.692 275.417
9.694 262.083
9.696 245.25
9.698 214.333
9.7 191.833
9.702 199.75
9.704 197.333
9.706 152.417
9.708 119.333
9.71 130.167
9.712 152.083
9.714 153.75
9.716 146.083
9.718 146.417
9.72 145.25
9.722 111.583
9.724 60.25
9.726 44.3333
9.728 70.6667
9.73 87.0833
9.732 64.9167
9.734 41.5
9.736 35.75
9.738 26.4167
9.74 16.3333
9.742 23.9167
9.744 23.5
9.746 -9.66667
9.748 -44.75
9.75 -56.4167
9.752 -51.6667
9.754 -35.75
9.756 -51.1667
9.758 -74.8333
9.76 -43.25
9.762 -10.5833
9.764 -35.75
9.766 -56.5
9.768 -34.6667
9.77 -36.25
9.772 -65.0833
9.774 -48.4167
9.776 -13.8333
9.778 -19.1667
9.78 -29.75
9.782 -30
9.784 -25.75
9.786 -17.8333
9.788 -11.25
9.79 -6.08333
9.792 -17.4167
9.794 -21.0833
9.796 -31.75
9.798 -44.6667
9.8 -31.3333
9.802 -19.9167
9.804 -10.9167
9.806 -3.58333
9.808 -4.91667
9.81 -3.25
9.812 0.916667
9.814 3.66667
9.816 -2
9.818 -8.41667
9.82 -14.25
9.822 -15.4167
9.824 0.75
9.826 10.0833
9.828 13.75
9.83 15.8333
9.832 13.8333
9.834 12.0833
9.836 16.9167
9.838 25.3333
9.84 23.1667
9.842 20.75
9.844 20.75
9.846 22.75
9.848 22.75
9.85 25.75
9.852 29.75
9.854 30.3333
9.856 39.4167
9.858 48.5
9.86 52.5
9.862 55.6667
9.864 55.1667
9.866 58.4167
9.868 52
9.87 50.75
9.872 53.0833
9.874 55.25
9.876 57.4167
9.878 57.3333
9.88 62.6667
9.882 55
9.884 49.6667
9.886 52.1667
9.888 55.3333
9.89 57
9.892 50.3333
9.894 49.4167
9.896 57.6667
9.898 61.5
9.9 66.4167
9.902 67.5
9.904 70.75
9.906 71.6667
9.908 74.4167
9.91 75.5
9.912 64.6667
9.914 55
9.916 45.9167
9.918 40.75
9.92 40.6667
9.922 41.8333
9.924 38.9167
9.926 35.75
9.928 30.5
9.93 34.9167
9.932 34.25
9.934 28.8333
9.936 29.8333
9.938 35.3333
9.94 42.3333
9.942 50.4167
9.944 56.0833
9.946 59.9167
9.948 59.3333
9.95 54.9167
9.952 54.9167
9.954 54.5
9.956 54.5
9.958 50.5
9.96 47.6667
9.962 44.3333
9.964 41.8333
9.966 37.5833
9.968 38.5833
9.97 35.8333
9.972 35.5
9.974 35.4167
9.976 40.5833
9.978 44.6667
9.98 48.75
9.982 53.5
9.984 39.9167
9.986 32.9167
9.988 32
9.99 30.5833
9.992 35
9.994 22.4167
9.996 25.6667
9.998 37.9167
