0 -29
0.00277778 -29
0.00555556 -29
0.00833333 -29
0.0111111 -29
0.0138889 -29
0.0166667 -29
0.0194444 -29
0.0222222 -24
0.025 -27
0.0277778 -29
0.0305556 -30
0.0333333 -32
0.0361111 -31
0.0388889 -32
0.0416667 -35
0.0444444 -36
0.0472222 -37
0.05 -34
0.0527778 -31
0.0555556 -35
0.0583333 -36
0.0611111 -38
0.0638889 -36
0.0666667 -31
0.0694444 -27
0.0722222 -31
0.075 -38
0.0777778 -41
0.0805556 -47
0.0833333 -45
0.0861111 -49
0.0888889 -50
0.0916667 -52
0.0944444 -55
0.0972222 -55
0.1 -55
0.102778 -53
0.105556 -51
0.108333 -53
0.111111 -55
0.113889 -58
0.116667 -58
0.119444 -58
0.122222 -58
0.125 -57
0.127778 -59
0.130556 -61
0.133333 -57
0.136111 -55
0.138889 -55
0.141667 -56
0.144444 -57
0.147222 -61
0.15 -58
0.152778 -60
0.155556 -56
0.158333 -58
0.161111 -60
0.163889 -63
0.166667 -64
0.169444 -67
0.172222 -72
0.175 -77
0.177778 -77
0.180556 -81
0.183333 -91
0.186111 -97
0.188889 -97
0.191667 -85
0.194444 -66
0.197222 -44
0.2 -14
0.202778 24
0.205556 75
0.208333 124
0.211111 156
0.213889 168
0.216667 153
0.219444 104
0.222222 34
0.225 -33
0.227778 -73
0.230556 -87
0.233333 -85
0.236111 -74
0.238889 -66
0.241667 -65
0.244444 -67
0.247222 -69
0.25 -66
0.252778 -65
0.255556 -63
0.258333 -62
0.261111 -64
0.263889 -67
0.266667 -68
0.269444 -65
0.272222 -69
0.275 -67
0.277778 -66
0.280556 -67
0.283333 -66
0.286111 -65
0.288889 -66
0.291667 -66
0.294444 -69
0.297222 -71
0.3 -67
0.302778 -65
0.305556 -61
0.308333 -64
0.311111 -64
0.313889 -66
0.316667 -68
0.319444 -67
0.322222 -68
0.325 -69
0.327778 -71
0.330556 -71
0.333333 -68
0.336111 -66
0.338889 -66
0.341667 -66
0.344444 -68
0.347222 -70
0.35 -65
0.352778 -65
0.355556 -66
0.358333 -66
0.361111 -67
0.363889 -67
0.366667 -68
0.369444 -66
0.372222 -68
0.375 -70
0.377778 -71
0.380556 -70
0.383333 -69
0.386111 -66
0.388889 -64
0.391667 -67
0.394444 -66
0.397222 -69
0.4 -66
0.402778 -67
0.405556 -67
0.408333 -69
0.411111 -69
0.413889 -71
0.416667 -68
0.419444 -68
0.422222 -67
0.425 -66
0.427778 -70
0.430556 -70
0.433333 -69
0.436111 -67
0.438889 -67
0.441667 -67
0.444444 -70
0.447222 -71
0.45 -71
0.452778 -69
0.455556 -69
0.458333 -67
0.461111 -70
0.463889 -72
0.466667 -72
0.469444 -72
0.472222 -73
0.475 -72
0.477778 -74
0.480556 -77
0.483333 -74
0.486111 -72
0.488889 -71
0.491667 -72
0.494444 -75
0.497222 -75
0.5 -73
0.502778 -73
0.505556 -72
0.508333 -72
0.511111 -73
0.513889 -74
0.516667 -71
0.519444 -66
0.522222 -65
0.525 -65
0.527778 -67
0.530556 -68
0.533333 -63
0.536111 -60
0.538889 -60
0.541667 -58
0.544444 -59
0.547222 -58
0.55 -57
0.552778 -55
0.555556 -51
0.558333 -50
0.561111 -50
0.563889 -53
0.566667 -51
0.569444 -49
0.572222 -46
0.575 -49
0.577778 -49
0.580556 -51
0.583333 -51
0.586111 -48
0.588889 -50
0.591667 -51
0.594444 -49
0.597222 -51
0.6 -50
0.602778 -50
0.605556 -53
0.608333 -52
0.611111 -52
0.613889 -53
0.616667 -54
0.619444 -53
0.622222 -52
0.625 -55
0.627778 -56
0.630556 -58
0.633333 -55
0.636111 -54
0.638889 -52
0.641667 -56
0.644444 -56
0.647222 -57
0.65 -55
0.652778 -55
0.655556 -53
0.658333 -54
0.661111 -57
0.663889 -58
0.666667 -56
0.669444 -55
0.672222 -57
0.675 -56
0.677778 -60
0.680556 -60
0.683333 -61
0.686111 -59
0.688889 -60
0.691667 -62
0.694444 -62
0.697222 -61
0.7 -59
0.702778 -57
0.705556 -57
0.708333 -58
0.711111 -59
0.713889 -62
0.716667 -58
0.719444 -59
0.722222 -60
0.725 -61
0.727778 -62
0.730556 -65
0.733333 -62
0.736111 -60
0.738889 -58
0.741667 -62
0.744444 -65
0.747222 -66
0.75 -63
0.752778 -60
0.755556 -61
0.758333 -62
0.761111 -64
0.763889 -66
0.766667 -65
0.769444 -63
0.772222 -62
0.775 -61
0.777778 -61
0.780556 -62
0.783333 -60
0.786111 -61
0.788889 -58
0.791667 -60
0.794444 -60
0.797222 -61
0.8 -61
0.802778 -58
0.805556 -56
0.808333 -59
0.811111 -61
0.813889 -63
0.816667 -61
0.819444 -59
0.822222 -58
0.825 -56
0.827778 -54
0.830556 -55
0.833333 -55
0.836111 -54
0.838889 -50
0.841667 -50
0.844444 -51
0.847222 -45
0.85 -44
0.852778 -41
0.855556 -40
0.858333 -41
0.861111 -43
0.863889 -46
0.866667 -44
0.869444 -45
0.872222 -45
0.875 -45
0.877778 -46
0.880556 -47
0.883333 -48
0.886111 -47
0.888889 -44
0.891667 -42
0.894444 -41
0.897222 -49
0.9 -57
0.902778 -57
0.905556 -60
0.908333 -62
0.911111 -66
0.913889 -66
0.916667 -65
0.919444 -63
0.922222 -64
0.925 -63
0.927778 -65
0.930556 -68
0.933333 -69
0.936111 -68
0.938889 -68
0.941667 -70
0.944444 -69
0.947222 -71
0.95 -66
0.952778 -67
0.955556 -66
0.958333 -64
0.961111 -69
0.963889 -71
0.966667 -68
0.969444 -66
0.972222 -65
0.975 -66
0.977778 -70
0.980556 -73
0.983333 -72
0.986111 -76
0.988889 -85
0.991667 -89
0.994444 -95
0.997222 -102
1 -107
1.00278 -101
1.00556 -83
1.00833 -60
1.01111 -32
1.01389 -3
1.01667 47
1.01944 98
1.02222 144
1.025 175
1.02778 188
1.03056 181
1.03333 151
1.03611 98
1.03889 33
1.04167 -22
1.04444 -54
1.04722 -78
1.05 -90
1.05278 -95
1.05556 -91
1.05833 -85
1.06111 -78
1.06389 -78
1.06667 -77
1.06944 -78
1.07222 -76
1.075 -76
1.07778 -76
1.08056 -79
1.08333 -77
1.08611 -77
1.08889 -77
1.09167 -75
1.09444 -79
1.09722 -82
1.1 -82
1.10278 -80
1.10556 -79
1.10833 -78
1.11111 -81
1.11389 -79
1.11667 -77
1.11944 -75
1.12222 -78
1.125 -78
1.12778 -81
1.13056 -82
1.13333 -82
1.13611 -78
1.13889 -78
1.14167 -79
1.14444 -81
1.14722 -83
1.15 -80
1.15278 -82
1.15556 -81
1.15833 -82
1.16111 -83
1.16389 -82
1.16667 -80
1.16944 -80
1.17222 -79
1.175 -78
1.17778 -81
1.18056 -82
1.18333 -78
1.18611 -78
1.18889 -77
1.19167 -77
1.19444 -82
1.19722 -81
1.2 -79
1.20278 -78
1.20556 -75
1.20833 -78
1.21111 -79
1.21389 -82
1.21667 -80
1.21944 -78
1.22222 -78
1.225 -77
1.22778 -81
1.23056 -83
1.23333 -83
1.23611 -80
1.23889 -79
1.24167 -81
1.24444 -83
1.24722 -84
1.25 -84
1.25278 -82
1.25556 -83
1.25833 -85
1.26111 -84
1.26389 -87
1.26667 -86
1.26944 -86
1.27222 -84
1.275 -86
1.27778 -90
1.28056 -91
1.28333 -90
1.28611 -87
1.28889 -89
1.29167 -90
1.29444 -91
1.29722 -94
1.3 -92
1.30278 -91
1.30556 -90
1.30833 -91
1.31111 -94
1.31389 -95
1.31667 -92
1.31944 -90
1.32222 -89
1.325 -88
1.32778 -87
1.33056 -88
1.33333 -82
1.33611 -79
1.33889 -74
1.34167 -73
1.34444 -72
1.34722 -73
1.35 -68
1.35278 -65
1.35556 -63
1.35833 -64
1.36111 -66
1.36389 -66
1.36667 -64
1.36944 -62
1.37222 -60
1.375 -60
1.37778 -64
1.38056 -64
1.38333 -63
1.38611 -61
1.38889 -61
1.39167 -59
1.39444 -64
1.39722 -66
1.4 -61
1.40278 -62
1.40556 -60
1.40833 -60
1.41111 -64
1.41389 -65
1.41667 -62
1.41944 -61
1.42222 -63
1.425 -61
1.42778 -63
1.43056 -63
1.43333 -62
1.43611 -59
1.43889 -58
1.44167 -61
1.44444 -62
1.44722 -64
1.45 -63
1.45278 -60
1.45556 -63
1.45833 -63
1.46111 -63
1.46389 -66
1.46667 -63
1.46944 -64
1.47222 -63
1.475 -65
1.47778 -67
1.48056 -68
1.48333 -67
1.48611 -67
1.48889 -66
1.49167 -65
1.49444 -69
1.49722 -70
1.5 -69
1.50278 -67
1.50556 -66
1.50833 -66
1.51111 -69
1.51389 -69
1.51667 -69
1.51944 -64
1.52222 -66
1.525 -67
1.52778 -68
1.53056 -71
1.53333 -67
1.53611 -66
1.53889 -66
1.54167 -67
1.54444 -71
1.54722 -72
1.55 -71
1.55278 -70
1.55556 -68
1.55833 -69
1.56111 -69
1.56389 -69
1.56667 -69
1.56944 -66
1.57222 -66
1.575 -67
1.57778 -69
1.58056 -70
1.58333 -70
1.58611 -68
1.58889 -66
1.59167 -69
1.59444 -69
1.59722 -71
1.6 -70
1.60278 -68
1.60556 -66
1.60833 -68
1.61111 -68
1.61389 -68
1.61667 -66
1.61944 -67
1.62222 -66
1.625 -67
1.62778 -69
1.63056 -69
1.63333 -68
1.63611 -66
1.63889 -63
1.64167 -59
1.64444 -60
1.64722 -59
1.65 -57
1.65278 -55
1.65556 -53
1.65833 -53
1.66111 -53
1.66389 -51
1.66667 -50
1.66944 -48
1.67222 -45
1.675 -43
1.67778 -48
1.68056 -49
1.68333 -48
1.68611 -49
1.68889 -47
1.69167 -49
1.69444 -50
1.69722 -55
1.7 -55
1.70278 -53
1.70556 -50
1.70833 -45
1.71111 -44
1.71389 -46
1.71667 -53
1.71944 -54
1.72222 -56
1.725 -57
1.72778 -61
1.73056 -64
1.73333 -68
1.73611 -66
1.73889 -67
1.74167 -67
1.74444 -71
1.74722 -74
1.75 -72
1.75278 -69
1.75556 -70
1.75833 -71
1.76111 -73
1.76389 -75
1.76667 -76
1.76944 -74
1.77222 -73
1.775 -73
1.77778 -76
1.78056 -77
1.78333 -76
1.78611 -75
1.78889 -71
1.79167 -74
1.79444 -78
1.79722 -81
1.8 -82
1.80278 -87
1.80556 -93
1.80833 -98
1.81111 -104
1.81389 -111
1.81667 -114
1.81944 -105
1.82222 -81
1.825 -50
1.82778 -18
1.83056 24
1.83333 82
1.83611 138
1.83889 177
1.84167 192
1.84444 170
1.84722 104
1.85 10
1.85278 -64
1.85556 -100
1.85833 -101
1.86111 -89
1.86389 -83
1.86667 -79
1.86944 -78
1.87222 -79
1.875 -78
1.87778 -79
1.88056 -81
1.88333 -79
1.88611 -81
1.88889 -78
1.89167 -79
1.89444 -79
1.89722 -82
1.9 -81
1.90278 -80
1.90556 -80
1.90833 -83
1.91111 -81
1.91389 -84
1.91667 -83
1.91944 -81
1.92222 -81
1.925 -84
1.92778 -84
1.93056 -87
1.93333 -84
1.93611 -82
1.93889 -82
1.94167 -81
1.94444 -85
1.94722 -86
1.95 -84
1.95278 -83
1.95556 -82
1.95833 -82
1.96111 -85
1.96389 -84
1.96667 -80
1.96944 -79
1.97222 -80
1.975 -80
1.97778 -79
1.98056 -83
1.98333 -81
1.98611 -78
1.98889 -80
1.99167 -80
1.99444 -83
1.99722 -85
2 -85
2.00278 -83
2.00556 -83
2.00833 -82
2.01111 -85
2.01389 -85
2.01667 -84
2.01944 -83
2.02222 -80
2.025 -80
2.02778 -82
2.03056 -85
2.03333 -82
2.03611 -81
2.03889 -79
2.04167 -80
2.04444 -80
2.04722 -81
2.05 -77
2.05278 -80
2.05556 -78
2.05833 -78
2.06111 -80
2.06389 -83
2.06667 -81
2.06944 -81
2.07222 -82
2.075 -83
2.07778 -84
2.08056 -84
2.08333 -85
2.08611 -83
2.08889 -83
2.09167 -82
2.09444 -87
2.09722 -86
2.1 -87
2.10278 -84
2.10556 -84
2.10833 -84
2.11111 -84
2.11389 -85
2.11667 -85
2.11944 -83
2.12222 -79
2.125 -79
2.12778 -78
2.13056 -75
2.13333 -72
2.13611 -68
2.13889 -67
2.14167 -66
2.14444 -67
2.14722 -67
2.15 -65
2.15278 -64
2.15556 -61
2.15833 -61
2.16111 -63
2.16389 -62
2.16667 -61
2.16944 -60
2.17222 -60
2.175 -60
2.17778 -62
2.18056 -62
2.18333 -62
2.18611 -63
2.18889 -60
2.19167 -61
2.19444 -63
2.19722 -64
2.2 -65
2.20278 -62
2.20556 -61
2.20833 -61
2.21111 -64
2.21389 -65
2.21667 -61
2.21944 -62
2.22222 -59
2.225 -62
2.22778 -65
2.23056 -66
2.23333 -64
2.23611 -64
2.23889 -64
2.24167 -65
2.24444 -70
2.24722 -70
2.25 -68
2.25278 -67
2.25556 -66
2.25833 -67
2.26111 -68
2.26389 -72
2.26667 -70
2.26944 -70
2.27222 -71
2.275 -72
2.27778 -71
2.28056 -73
2.28333 -71
2.28611 -70
2.28889 -68
2.29167 -71
2.29444 -70
2.29722 -73
2.3 -73
2.30278 -70
2.30556 -71
2.30833 -70
2.31111 -74
2.31389 -76
2.31667 -74
2.31944 -72
2.32222 -73
2.325 -72
2.32778 -73
2.33056 -76
2.33333 -74
2.33611 -73
2.33889 -70
2.34167 -70
2.34444 -70
2.34722 -74
2.35 -73
2.35278 -69
2.35556 -69
2.35833 -68
2.36111 -71
2.36389 -73
2.36667 -72
2.36944 -71
2.37222 -71
2.375 -71
2.37778 -75
2.38056 -77
2.38333 -71
2.38611 -72
2.38889 -71
2.39167 -72
2.39444 -72
2.39722 -74
2.4 -72
2.40278 -69
2.40556 -71
2.40833 -69
2.41111 -69
2.41389 -69
2.41667 -68
2.41944 -62
2.42222 -61
2.425 -61
2.42778 -62
2.43056 -61
2.43333 -58
2.43611 -57
2.43889 -55
2.44167 -56
2.44444 -56
2.44722 -55
2.45 -53
2.45278 -51
2.45556 -49
2.45833 -52
2.46111 -53
2.46389 -55
2.46667 -56
2.46944 -53
2.47222 -54
2.475 -55
2.47778 -56
2.48056 -55
2.48333 -56
2.48611 -55
2.48889 -53
2.49167 -51
2.49444 -48
2.49722 -52
2.5 -56
2.50278 -62
2.50556 -62
2.50833 -69
2.51111 -72
2.51389 -76
2.51667 -77
2.51944 -76
2.52222 -74
2.525 -75
2.52778 -77
2.53056 -78
2.53333 -79
2.53611 -77
2.53889 -77
2.54167 -77
2.54444 -79
2.54722 -81
2.55 -80
2.55278 -75
2.55556 -75
2.55833 -78
2.56111 -79
2.56389 -83
2.56667 -81
2.56944 -80
2.57222 -78
2.575 -81
2.57778 -85
2.58056 -92
2.58333 -95
2.58611 -101
2.58889 -102
2.59167 -105
2.59444 -108
2.59722 -120
2.6 -129
2.60278 -126
2.60556 -115
2.60833 -99
2.61111 -77
2.61389 -54
2.61667 -23
2.61944 18
2.62222 74
2.625 127
2.62778 162
2.63056 172
2.63333 154
2.63611 95
2.63889 13
2.64167 -61
2.64444 -100
2.64722 -104
2.65 -95
2.65278 -82
2.65556 -78
2.65833 -78
2.66111 -80
2.66389 -82
2.66667 -81
2.66944 -77
2.67222 -78
2.675 -79
2.67778 -81
2.68056 -82
2.68333 -81
2.68611 -80
2.68889 -78
2.69167 -79
2.69444 -82
2.69722 -83
2.7 -82
2.70278 -79
2.70556 -81
2.70833 -82
2.71111 -81
2.71389 -81
2.71667 -82
2.71944 -78
2.72222 -77
2.725 -78
2.72778 -79
2.73056 -80
2.73333 -80
2.73611 -80
2.73889 -79
2.74167 -79
2.74444 -81
2.74722 -81
2.75 -80
2.75278 -79
2.75556 -77
2.75833 -75
2.76111 -77
2.76389 -79
2.76667 -78
2.76944 -77
2.77222 -75
2.775 -77
2.77778 -79
2.78056 -79
2.78333 -77
2.78611 -75
2.78889 -75
2.79167 -77
2.79444 -79
2.79722 -78
2.8 -78
2.80278 -73
2.80556 -75
2.80833 -77
2.81111 -79
2.81389 -76
2.81667 -77
2.81944 -75
2.82222 -76
2.825 -78
2.82778 -76
2.83056 -75
2.83333 -75
2.83611 -75
2.83889 -75
2.84167 -76
2.84444 -78
2.84722 -78
2.85 -73
2.85278 -74
2.85556 -75
2.85833 -77
2.86111 -78
2.86389 -78
2.86667 -75
2.86944 -73
2.87222 -77
2.875 -76
2.87778 -78
2.88056 -75
2.88333 -75
2.88611 -73
2.88889 -74
2.89167 -77
2.89444 -79
2.89722 -77
2.9 -77
2.90278 -74
2.90556 -73
2.90833 -74
2.91111 -75
2.91389 -70
2.91667 -67
2.91944 -64
2.92222 -63
2.925 -64
2.92778 -65
2.93056 -63
2.93333 -59
2.93611 -57
2.93889 -60
2.94167 -59
2.94444 -57
2.94722 -57
2.95 -56
2.95278 -54
2.95556 -56
2.95833 -58
2.96111 -59
2.96389 -59
2.96667 -58
2.96944 -56
2.97222 -58
2.975 -59
2.97778 -62
2.98056 -59
2.98333 -57
2.98611 -56
2.98889 -55
2.99167 -59
2.99444 -61
2.99722 -60
3 -59
3.00278 -59
3.00556 -57
3.00833 -60
3.01111 -61
3.01389 -60
3.01667 -59
3.01944 -60
3.02222 -61
3.025 -63
3.02778 -62
3.03056 -63
3.03333 -59
3.03611 -60
3.03889 -62
3.04167 -66
3.04444 -68
3.04722 -66
3.05 -64
3.05278 -64
3.05556 -63
3.05833 -65
3.06111 -67
3.06389 -66
3.06667 -63
3.06944 -64
3.07222 -64
3.075 -66
3.07778 -69
3.08056 -68
3.08333 -67
3.08611 -66
3.08889 -67
3.09167 -69
3.09444 -70
3.09722 -69
3.1 -68
3.10278 -67
3.10556 -67
3.10833 -66
3.11111 -67
3.11389 -68
3.11667 -67
3.11944 -64
3.12222 -68
3.125 -68
3.12778 -70
3.13056 -73
3.13333 -72
3.13611 -69
3.13889 -69
3.14167 -70
3.14444 -70
3.14722 -70
3.15 -68
3.15278 -68
3.15556 -69
3.15833 -69
3.16111 -76
3.16389 -72
3.16667 -72
3.16944 -69
3.17222 -69
3.175 -70
3.17778 -71
3.18056 -69
3.18333 -66
3.18611 -66
3.18889 -67
3.19167 -67
3.19444 -68
3.19722 -66
3.2 -64
3.20278 -58
3.20556 -58
3.20833 -60
3.21111 -61
3.21389 -57
3.21667 -56
3.21944 -55
3.22222 -56
3.225 -55
3.22778 -54
3.23056 -53
3.23333 -50
3.23611 -46
3.23889 -49
3.24167 -48
3.24444 -51
3.24722 -51
3.25 -49
3.25278 -47
3.25556 -51
3.25833 -53
3.26111 -52
3.26389 -51
3.26667 -54
3.26944 -53
3.27222 -56
3.275 -51
3.27778 -50
3.28056 -49
3.28333 -53
3.28611 -56
3.28889 -60
3.29167 -63
3.29444 -65
3.29722 -67
3.3 -69
3.30278 -66
3.30556 -67
3.30833 -69
3.31111 -72
3.31389 -70
3.31667 -68
3.31944 -67
3.32222 -69
3.325 -72
3.32778 -73
3.33056 -75
3.33333 -74
3.33611 -73
3.33889 -73
3.34167 -76
3.34444 -75
3.34722 -75
3.35 -73
3.35278 -74
3.35556 -72
3.35833 -74
3.36111 -76
3.36389 -73
3.36667 -72
3.36944 -70
3.37222 -71
3.375 -74
3.37778 -77
3.38056 -79
3.38333 -86
3.38611 -89
3.38889 -97
3.39167 -103
3.39444 -113
3.39722 -111
3.4 -95
3.40278 -71
3.40556 -44
3.40833 -11
3.41111 37
3.41389 95
3.41667 141
3.41944 164
3.42222 156
3.425 107
3.42778 29
3.43056 -40
3.43333 -84
3.43611 -100
3.43889 -96
3.44167 -90
3.44444 -82
3.44722 -80
3.45 -78
3.45278 -78
3.45556 -80
3.45833 -81
3.46111 -85
3.46389 -85
3.46667 -81
3.46944 -79
3.47222 -81
3.475 -81
3.47778 -83
3.48056 -81
3.48333 -77
3.48611 -78
3.48889 -79
3.49167 -79
3.49444 -79
3.49722 -79
3.5 -77
3.50278 -78
3.50556 -78
3.50833 -80
3.51111 -85
3.51389 -82
3.51667 -80
3.51944 -79
3.52222 -80
3.525 -81
3.52778 -85
3.53056 -83
3.53333 -81
3.53611 -81
3.53889 -81
3.54167 -82
3.54444 -83
3.54722 -81
3.55 -84
3.55278 -81
3.55556 -82
3.55833 -82
3.56111 -84
3.56389 -83
3.56667 -81
3.56944 -79
3.57222 -79
3.575 -79
3.57778 -80
3.58056 -79
3.58333 -79
3.58611 -81
3.58889 -81
3.59167 -84
3.59444 -87
3.59722 -83
3.6 -81
3.60278 -79
3.60556 -78
3.60833 -83
3.61111 -81
3.61389 -81
3.61667 -80
3.61944 -79
3.62222 -79
3.625 -81
3.62778 -84
3.63056 -83
3.63333 -80
3.63611 -79
3.63889 -80
3.64167 -81
3.64444 -85
3.64722 -85
3.65 -85
3.65278 -84
3.65556 -85
3.65833 -90
3.66111 -89
3.66389 -90
3.66667 -87
3.66944 -89
3.67222 -94
3.675 -91
3.67778 -92
3.68056 -88
3.68333 -87
3.68611 -85
3.68889 -86
3.69167 -89
3.69444 -90
3.69722 -89
3.7 -86
3.70278 -84
3.70556 -82
3.70833 -85
3.71111 -84
3.71389 -81
3.71667 -76
3.71944 -74
3.72222 -73
3.725 -73
3.72778 -73
3.73056 -69
3.73333 -66
3.73611 -63
3.73889 -61
3.74167 -61
3.74444 -64
3.74722 -62
3.75 -62
3.75278 -61
3.75556 -62
3.75833 -63
3.76111 -64
3.76389 -63
3.76667 -61
3.76944 -61
3.77222 -59
3.775 -62
3.77778 -64
3.78056 -62
3.78333 -63
3.78611 -59
3.78889 -60
3.79167 -61
3.79444 -60
3.79722 -57
3.8 -56
3.80278 -58
3.80556 -59
3.80833 -61
3.81111 -65
3.81389 -61
3.81667 -60
3.81944 -60
3.82222 -63
3.825 -65
3.82778 -67
3.83056 -65
3.83333 -63
3.83611 -64
3.83889 -67
3.84167 -66
3.84444 -68
3.84722 -65
3.85 -65
3.85278 -64
3.85556 -63
3.85833 -67
3.86111 -67
3.86389 -69
3.86667 -67
3.86944 -65
3.87222 -66
3.875 -63
3.87778 -67
3.88056 -66
3.88333 -66
3.88611 -66
3.88889 -66
3.89167 -67
3.89444 -68
3.89722 -66
3.9 -64
3.90278 -63
3.90556 -65
3.90833 -67
3.91111 -71
3.91389 -69
3.91667 -68
3.91944 -67
3.92222 -64
3.925 -65
3.92778 -70
3.93056 -66
3.93333 -63
3.93611 -63
3.93889 -66
3.94167 -66
3.94444 -67
3.94722 -67
3.95 -66
3.95278 -66
3.95556 -66
3.95833 -68
3.96111 -68
3.96389 -68
3.96667 -65
3.96944 -65
3.97222 -65
3.975 -69
3.97778 -70
3.98056 -68
3.98333 -66
3.98611 -64
3.98889 -62
3.99167 -61
3.99444 -61
3.99722 -55
4 -54
4.00278 -51
4.00556 -52
4.00833 -53
4.01111 -52
4.01389 -50
4.01667 -47
4.01944 -47
4.02222 -44
4.025 -47
4.02778 -47
4.03056 -44
4.03333 -46
4.03611 -45
4.03889 -47
4.04167 -49
4.04444 -51
4.04722 -48
4.05 -46
4.05278 -46
4.05556 -50
4.05833 -51
4.06111 -50
4.06389 -46
4.06667 -41
4.06944 -39
4.07222 -42
4.075 -46
4.07778 -54
4.08056 -54
4.08333 -57
4.08611 -57
4.08889 -62
4.09167 -66
4.09444 -68
4.09722 -68
4.1 -69
4.10278 -70
4.10556 -70
4.10833 -68
4.11111 -71
4.11389 -69
4.11667 -68
4.11944 -68
4.12222 -69
4.125 -71
4.12778 -74
4.13056 -71
4.13333 -74
4.13611 -69
4.13889 -68
4.14167 -72
4.14444 -76
4.14722 -72
4.15 -69
4.15278 -70
4.15556 -70
4.15833 -71
4.16111 -76
4.16389 -78
4.16667 -79
4.16944 -85
4.17222 -91
4.175 -95
4.17778 -102
4.18056 -109
4.18333 -108
4.18611 -99
4.18889 -81
4.19167 -59
4.19444 -32
4.19722 8
4.2 63
4.20278 119
4.20556 160
4.20833 177
4.21111 159
4.21389 104
4.21667 26
4.21944 -43
4.22222 -85
4.225 -100
4.22778 -98
4.23056 -90
4.23333 -80
4.23611 -78
4.23889 -79
4.24167 -79
4.24444 -80
4.24722 -78
4.25 -76
4.25278 -77
4.25556 -77
4.25833 -80
4.26111 -82
4.26389 -82
4.26667 -78
4.26944 -78
4.27222 -81
4.275 -81
4.27778 -83
4.28056 -82
4.28333 -79
4.28611 -79
4.28889 -80
4.29167 -83
4.29444 -83
4.29722 -83
4.3 -80
4.30278 -78
4.30556 -78
4.30833 -82
4.31111 -83
4.31389 -81
4.31667 -79
4.31944 -79
4.32222 -79
4.325 -81
4.32778 -82
4.33056 -82
4.33333 -80
4.33611 -78
4.33889 -79
4.34167 -82
4.34444 -85
4.34722 -83
4.35 -81
4.35278 -82
4.35556 -81
4.35833 -83
4.36111 -85
4.36389 -85
4.36667 -82
4.36944 -79
4.37222 -78
4.375 -80
4.37778 -82
4.38056 -82
4.38333 -80
4.38611 -78
4.38889 -82
4.39167 -84
4.39444 -84
4.39722 -83
4.4 -83
4.40278 -81
4.40556 -84
4.40833 -83
4.41111 -85
4.41389 -82
4.41667 -80
4.41944 -81
4.42222 -80
4.425 -80
4.42778 -82
4.43056 -80
4.43333 -79
4.43611 -79
4.43889 -81
4.44167 -82
4.44444 -85
4.44722 -85
4.45 -82
4.45278 -82
4.45556 -84
4.45833 -86
4.46111 -89
4.46389 -88
4.46667 -87
4.46944 -86
4.47222 -86
4.475 -90
4.47778 -89
4.48056 -89
4.48333 -87
4.48611 -87
4.48889 -89
4.49167 -88
4.49444 -90
4.49722 -86
4.5 -86
4.50278 -83
4.50556 -80
4.50833 -80
4.51111 -77
4.51389 -73
4.51667 -67
4.51944 -66
4.52222 -65
4.525 -66
4.52778 -66
4.53056 -62
4.53333 -59
4.53611 -57
4.53889 -58
4.54167 -58
4.54444 -62
4.54722 -59
4.55 -57
4.55278 -56
4.55556 -60
4.55833 -58
4.56111 -59
4.56389 -58
4.56667 -56
4.56944 -55
4.57222 -55
4.575 -58
4.57778 -58
4.58056 -57
4.58333 -54
4.58611 -54
4.58889 -54
4.59167 -55
4.59444 -58
4.59722 -57
4.6 -55
4.60278 -55
4.60556 -58
4.60833 -59
4.61111 -61
4.61389 -59
4.61667 -59
4.61944 -57
4.62222 -58
4.625 -60
4.62778 -61
4.63056 -62
4.63333 -59
4.63611 -60
4.63889 -61
4.64167 -62
4.64444 -65
4.64722 -65
4.65 -63
4.65278 -62
4.65556 -63
4.65833 -63
4.66111 -65
4.66389 -64
4.66667 -62
4.66944 -64
4.67222 -63
4.675 -66
4.67778 -66
4.68056 -64
4.68333 -62
4.68611 -62
4.68889 -62
4.69167 -66
4.69444 -67
4.69722 -66
4.7 -64
4.70278 -65
4.70556 -65
4.70833 -66
4.71111 -67
4.71389 -66
4.71667 -65
4.71944 -65
4.72222 -64
4.725 -65
4.72778 -66
4.73056 -65
4.73333 -63
4.73611 -61
4.73889 -65
4.74167 -63
4.74444 -67
4.74722 -66
4.75 -62
4.75278 -64
4.75556 -66
4.75833 -66
4.76111 -67
4.76389 -66
4.76667 -66
4.76944 -64
4.77222 -64
4.775 -66
4.77778 -66
4.78056 -65
4.78333 -63
4.78611 -63
4.78889 -63
4.79167 -66
4.79444 -66
4.79722 -64
4.8 -63
4.80278 -61
4.80556 -61
4.80833 -59
4.81111 -63
4.81389 -60
4.81667 -55
4.81944 -51
4.82222 -51
4.825 -52
4.82778 -53
4.83056 -51
4.83333 -47
4.83611 -46
4.83889 -45
4.84167 -44
4.84444 -44
4.84722 -43
4.85 -40
4.85278 -41
4.85556 -41
4.85833 -45
4.86111 -47
4.86389 -48
4.86667 -46
4.86944 -43
4.87222 -48
4.875 -48
4.87778 -50
4.88056 -47
4.88333 -42
4.88611 -40
4.88889 -44
4.89167 -51
4.89444 -55
4.89722 -57
4.9 -60
4.90278 -61
4.90556 -64
4.90833 -66
4.91111 -65
4.91389 -64
4.91667 -66
4.91944 -66
4.92222 -67
4.925 -68
4.92778 -69
4.93056 -68
4.93333 -67
4.93611 -64
4.93889 -65
4.94167 -67
4.94444 -69
4.94722 -69
4.95 -69
4.95278 -67
4.95556 -68
4.95833 -69
4.96111 -71
4.96389 -68
4.96667 -68
4.96944 -68
4.97222 -68
4.975 -69
4.97778 -71
4.98056 -73
4.98333 -74
4.98611 -81
4.98889 -89
4.99167 -96
4.99444 -99
4.99722 -104
5 -107
5.00278 -101
5.00556 -83
5.00833 -56
5.01111 -27
5.01389 13
5.01667 60
5.01944 116
5.02222 162
5.025 189
5.02778 184
5.03056 155
5.03333 89
5.03611 4
5.03889 -59
5.04167 -89
5.04444 -94
5.04722 -85
5.05 -76
5.05278 -72
5.05556 -72
5.05833 -74
5.06111 -76
5.06389 -76
5.06667 -75
5.06944 -74
5.07222 -73
5.075 -74
5.07778 -77
5.08056 -77
5.08333 -75
5.08611 -74
5.08889 -74
5.09167 -77
5.09444 -79
5.09722 -77
5.1 -77
5.10278 -78
5.10556 -77
5.10833 -79
5.11111 -82
5.11389 -80
5.11667 -79
5.11944 -76
5.12222 -79
5.125 -79
5.12778 -80
5.13056 -80
5.13333 -79
5.13611 -78
5.13889 -78
5.14167 -79
5.14444 -81
5.14722 -78
5.15 -77
5.15278 -75
5.15556 -75
5.15833 -76
5.16111 -78
5.16389 -77
5.16667 -74
5.16944 -74
5.17222 -74
5.175 -75
5.17778 -77
5.18056 -74
5.18333 -78
5.18611 -75
5.18889 -74
5.19167 -76
5.19444 -78
5.19722 -78
5.2 -77
5.20278 -75
5.20556 -75
5.20833 -77
5.21111 -79
5.21389 -78
5.21667 -77
5.21944 -75
5.22222 -76
5.225 -77
5.22778 -78
5.23056 -76
5.23333 -76
5.23611 -74
5.23889 -74
5.24167 -73
5.24444 -78
5.24722 -73
5.25 -73
5.25278 -72
5.25556 -75
5.25833 -76
5.26111 -80
5.26389 -78
5.26667 -75
5.26944 -75
5.27222 -74
5.275 -77
5.27778 -78
5.28056 -78
5.28333 -78
5.28611 -78
5.28889 -75
5.29167 -77
5.29444 -79
5.29722 -76
5.3 -74
5.30278 -75
5.30556 -75
5.30833 -78
5.31111 -81
5.31389 -75
5.31667 -74
5.31944 -72
5.32222 -75
5.325 -77
5.32778 -76
5.33056 -74
5.33333 -72
5.33611 -69
5.33889 -69
5.34167 -66
5.34444 -66
5.34722 -63
5.35 -62
5.35278 -59
5.35556 -57
5.35833 -57
5.36111 -59
5.36389 -56
5.36667 -54
5.36944 -56
5.37222 -56
5.375 -56
5.37778 -58
5.38056 -58
5.38333 -56
5.38611 -55
5.38889 -56
5.39167 -57
5.39444 -58
5.39722 -58
5.4 -56
5.40278 -56
5.40556 -57
5.40833 -58
5.41111 -60
5.41389 -59
5.41667 -57
5.41944 -56
5.42222 -57
5.425 -57
5.42778 -59
5.43056 -57
5.43333 -56
5.43611 -55
5.43889 -56
5.44167 -58
5.44444 -62
5.44722 -61
5.45 -57
5.45278 -54
5.45556 -54
5.45833 -55
5.46111 -57
5.46389 -57
5.46667 -54
5.46944 -53
5.47222 -53
5.475 -53
5.47778 -56
5.48056 -53
5.48333 -49
5.48611 -47
5.48889 -47
5.49167 -50
5.49444 -50
5.49722 -49
5.5 -43
5.50278 -44
5.50556 -49
5.50833 -51
5.51111 -46
5.51389 -41
5.51667 -42
5.51944 -44
5.52222 -46
5.525 -48
5.52778 -48
5.53056 -49
5.53333 -50
5.53611 -54
5.53889 -57
5.54167 -63
5.54444 -64
5.54722 -64
5.55 -62
5.55278 -66
5.55556 -68
5.55833 -69
5.56111 -72
5.56389 -73
5.56667 -72
5.56944 -70
5.57222 -71
5.575 -75
5.57778 -77
5.58056 -75
5.58333 -74
5.58611 -73
5.58889 -73
5.59167 -74
5.59444 -76
5.59722 -72
5.6 -70
5.60278 -71
5.60556 -71
5.60833 -70
5.61111 -73
5.61389 -70
5.61667 -70
5.61944 -68
5.62222 -71
5.625 -70
5.62778 -75
5.63056 -73
5.63333 -75
5.63611 -80
5.63889 -86
5.64167 -95
5.64444 -104
5.64722 -104
5.65 -110
5.65278 -114
5.65556 -108
5.65833 -89
5.66111 -61
5.66389 -28
5.66667 5
5.66944 52
5.67222 102
5.675 147
5.67778 169
5.68056 175
5.68333 147
5.68611 80
5.68889 -5
5.69167 -67
5.69444 -96
5.69722 -94
5.7 -83
5.70278 -75
5.70556 -73
5.70833 -77
5.71111 -80
5.71389 -76
5.71667 -78
5.71944 -75
5.72222 -77
5.725 -79
5.72778 -81
5.73056 -78
5.73333 -76
5.73611 -77
5.73889 -77
5.74167 -79
5.74444 -80
5.74722 -81
5.75 -80
5.75278 -78
5.75556 -78
5.75833 -79
5.76111 -80
5.76389 -78
5.76667 -77
5.76944 -78
5.77222 -77
5.775 -82
5.77778 -84
5.78056 -81
5.78333 -82
5.78611 -78
5.78889 -78
5.79167 -78
5.79444 -80
5.79722 -80
5.8 -78
5.80278 -75
5.80556 -76
5.80833 -79
5.81111 -80
5.81389 -78
5.81667 -80
5.81944 -78
5.82222 -79
5.825 -82
5.82778 -83
5.83056 -81
5.83333 -77
5.83611 -77
5.83889 -76
5.84167 -80
5.84444 -80
5.84722 -79
5.85 -78
5.85278 -76
5.85556 -75
5.85833 -79
5.86111 -79
5.86389 -77
5.86667 -76
5.86944 -75
5.87222 -77
5.875 -78
5.87778 -80
5.88056 -80
5.88333 -77
5.88611 -76
5.88889 -79
5.89167 -78
5.89444 -80
5.89722 -79
5.9 -77
5.90278 -76
5.90556 -77
5.90833 -79
5.91111 -81
5.91389 -80
5.91667 -78
5.91944 -76
5.92222 -76
5.925 -77
5.92778 -81
5.93056 -79
5.93333 -80
5.93611 -78
5.93889 -80
5.94167 -81
5.94444 -85
5.94722 -84
5.95 -81
5.95278 -80
5.95556 -81
5.95833 -81
5.96111 -83
5.96389 -80
5.96667 -78
5.96944 -76
5.97222 -77
5.975 -79
5.97778 -81
5.98056 -78
5.98333 -74
5.98611 -74
5.98889 -74
5.99167 -77
5.99444 -74
5.99722 -71
6 -69
6.00278 -68
6.00556 -67
6.00833 -68
6.01111 -71
6.01389 -67
6.01667 -65
6.01944 -62
6.02222 -61
6.025 -61
6.02778 -64
6.03056 -63
6.03333 -62
6.03611 -61
6.03889 -61
6.04167 -66
6.04444 -65
6.04722 -69
6.05 -65
6.05278 -63
6.05556 -63
6.05833 -61
6.06111 -62
6.06389 -62
6.06667 -60
6.06944 -61
6.07222 -61
6.075 -63
6.07778 -64
6.08056 -65
6.08333 -63
6.08611 -61
6.08889 -63
6.09167 -65
6.09444 -65
6.09722 -66
6.1 -63
6.10278 -63
6.10556 -62
6.10833 -66
6.11111 -68
6.11389 -67
6.11667 -66
6.11944 -69
6.12222 -71
6.125 -73
6.12778 -74
6.13056 -69
6.13333 -68
6.13611 -68
6.13889 -69
6.14167 -72
6.14444 -73
6.14722 -72
6.15 -72
6.15278 -69
6.15556 -71
6.15833 -73
6.16111 -70
6.16389 -72
6.16667 -70
6.16944 -68
6.17222 -69
6.175 -71
6.17778 -74
6.18056 -70
6.18333 -70
6.18611 -70
6.18889 -69
6.19167 -70
6.19444 -71
6.19722 -72
6.2 -69
6.20278 -71
6.20556 -70
6.20833 -72
6.21111 -74
6.21389 -71
6.21667 -71
6.21944 -70
6.22222 -71
6.225 -72
6.22778 -78
6.23056 -77
6.23333 -72
6.23611 -72
6.23889 -74
6.24167 -74
6.24444 -78
6.24722 -75
6.25 -74
6.25278 -70
6.25556 -68
6.25833 -69
6.26111 -72
6.26389 -72
6.26667 -70
6.26944 -70
6.27222 -67
6.275 -72
6.27778 -73
6.28056 -73
6.28333 -72
6.28611 -72
6.28889 -73
6.29167 -75
6.29444 -77
6.29722 -77
6.3 -73
6.30278 -74
6.30556 -75
6.30833 -74
6.31111 -75
6.31389 -73
6.31667 -71
6.31944 -71
6.32222 -72
6.325 -73
6.32778 -74
6.33056 -72
6.33333 -70
6.33611 -68
6.33889 -69
6.34167 -68
6.34444 -70
6.34722 -69
6.35 -70
6.35278 -72
6.35556 -70
6.35833 -72
6.36111 -74
6.36389 -72
6.36667 -72
6.36944 -71
6.37222 -72
6.375 -75
6.37778 -75
6.38056 -74
6.38333 -70
6.38611 -71
6.38889 -72
6.39167 -73
6.39444 -75
6.39722 -74
6.4 -73
6.40278 -72
6.40556 -71
6.40833 -72
6.41111 -72
6.41389 -70
6.41667 -68
6.41944 -69
6.42222 -69
6.425 -71
6.42778 -72
6.43056 -72
6.43333 -73
6.43611 -69
6.43889 -71
6.44167 -70
6.44444 -72
6.44722 -71
6.45 -72
6.45278 -69
6.45556 -67
6.45833 -66
6.46111 -66
6.46389 -62
6.46667 -61
6.46944 -60
6.47222 -61
6.475 -59
6.47778 -61
6.48056 -57
6.48333 -55
6.48611 -53
6.48889 -51
6.49167 -51
6.49444 -52
6.49722 -53
6.5 -51
6.50278 -51
6.50556 -52
6.50833 -56
6.51111 -58
6.51389 -56
6.51667 -54
6.51944 -51
6.52222 -55
6.525 -58
6.52778 -64
6.53056 -60
6.53333 -59
6.53611 -54
6.53889 -53
6.54167 -54
6.54444 -57
6.54722 -60
6.55 -62
6.55278 -63
6.55556 -64
6.55833 -70
6.56111 -74
6.56389 -73
6.56667 -73
6.56944 -73
6.57222 -74
6.575 -74
6.57778 -74
6.58056 -76
6.58333 -72
6.58611 -75
6.58889 -75
6.59167 -80
6.59444 -84
6.59722 -81
6.6 -80
6.60278 -77
6.60556 -76
6.60833 -80
6.61111 -83
6.61389 -81
6.61667 -79
6.61944 -79
6.62222 -79
6.625 -82
6.62778 -86
6.63056 -88
6.63333 -91
6.63611 -98
6.63889 -97
6.64167 -104
6.64444 -114
6.64722 -115
6.65 -105
6.65278 -84
6.65556 -61
6.65833 -38
6.66111 -4
6.66389 44
6.66667 97
6.66944 143
6.67222 169
6.675 177
6.67778 158
6.68056 112
6.68333 45
6.68611 -14
6.68889 -57
6.69167 -85
6.69444 -100
6.69722 -110
6.7 -107
6.70278 -100
6.70556 -93
6.70833 -90
6.71111 -90
6.71389 -87
6.71667 -84
6.71944 -82
6.72222 -82
6.725 -83
6.72778 -84
6.73056 -85
6.73333 -84
6.73611 -86
6.73889 -86
6.74167 -88
6.74444 -90
6.74722 -90
6.75 -86
6.75278 -86
6.75556 -86
6.75833 -89
6.76111 -89
6.76389 -88
6.76667 -85
6.76944 -86
6.77222 -86
6.775 -85
6.77778 -89
6.78056 -89
6.78333 -86
6.78611 -87
6.78889 -87
6.79167 -89
6.79444 -89
6.79722 -87
6.8 -86
6.80278 -85
6.80556 -86
6.80833 -86
6.81111 -88
6.81389 -84
6.81667 -86
6.81944 -85
6.82222 -86
6.825 -88
6.82778 -88
6.83056 -86
6.83333 -86
6.83611 -83
6.83889 -85
6.84167 -86
6.84444 -91
6.84722 -89
6.85 -89
6.85278 -86
6.85556 -86
6.85833 -88
6.86111 -88
6.86389 -87
6.86667 -86
6.86944 -83
6.87222 -83
6.875 -85
6.87778 -85
6.88056 -84
6.88333 -81
6.88611 -81
6.88889 -83
6.89167 -83
6.89444 -85
6.89722 -86
6.9 -81
6.90278 -81
6.90556 -81
6.90833 -81
6.91111 -86
6.91389 -83
6.91667 -82
6.91944 -83
6.92222 -86
6.925 -89
6.92778 -93
6.93056 -92
6.93333 -90
6.93611 -91
6.93889 -92
6.94167 -93
6.94444 -97
6.94722 -99
6.95 -95
6.95278 -98
6.95556 -100
6.95833 -99
6.96111 -103
6.96389 -100
6.96667 -97
6.96944 -98
6.97222 -97
6.975 -100
6.97778 -100
6.98056 -98
6.98333 -96
6.98611 -92
6.98889 -92
6.99167 -94
6.99444 -93
6.99722 -88
7 -86
7.00278 -85
7.00556 -82
7.00833 -82
7.01111 -80
7.01389 -78
7.01667 -76
7.01944 -71
7.02222 -70
7.025 -71
7.02778 -70
7.03056 -68
7.03333 -66
7.03611 -65
7.03889 -61
7.04167 -64
7.04444 -63
7.04722 -61
7.05 -60
7.05278 -61
7.05556 -61
7.05833 -62
7.06111 -66
7.06389 -62
7.06667 -63
7.06944 -63
7.07222 -64
7.075 -65
7.07778 -65
7.08056 -65
7.08333 -62
7.08611 -62
7.08889 -63
7.09167 -65
7.09444 -66
7.09722 -65
7.1 -65
7.10278 -63
7.10556 -64
7.10833 -66
7.11111 -67
7.11389 -66
7.11667 -63
7.11944 -64
7.12222 -64
7.125 -67
7.12778 -67
7.13056 -65
7.13333 -65
7.13611 -64
7.13889 -64
7.14167 -65
7.14444 -70
7.14722 -69
7.15 -69
7.15278 -67
7.15556 -69
7.15833 -71
7.16111 -71
7.16389 -71
7.16667 -69
7.16944 -67
7.17222 -67
7.175 -69
7.17778 -71
7.18056 -68
7.18333 -67
7.18611 -66
7.18889 -67
7.19167 -69
7.19444 -70
7.19722 -70
7.2 -68
7.20278 -67
7.20556 -66
7.20833 -72
7.21111 -71
7.21389 -69
7.21667 -67
7.21944 -69
7.22222 -70
7.225 -72
7.22778 -76
7.23056 -74
7.23333 -69
7.23611 -69
7.23889 -70
7.24167 -71
7.24444 -73
7.24722 -72
7.25 -69
7.25278 -69
7.25556 -70
7.25833 -72
7.26111 -72
7.26389 -70
7.26667 -71
7.26944 -68
7.27222 -69
7.275 -71
7.27778 -71
7.28056 -71
7.28333 -68
7.28611 -68
7.28889 -69
7.29167 -73
7.29444 -74
7.29722 -70
7.3 -66
7.30278 -64
7.30556 -63
7.30833 -59
7.31111 -61
7.31389 -59
7.31667 -60
7.31944 -57
7.32222 -55
7.325 -52
7.32778 -55
7.33056 -53
7.33333 -52
7.33611 -50
7.33889 -49
7.34167 -51
7.34444 -53
7.34722 -52
7.35 -52
7.35278 -50
7.35556 -52
7.35833 -56
7.36111 -56
7.36389 -55
7.36667 -57
7.36944 -56
7.37222 -51
7.375 -49
7.37778 -49
7.38056 -52
7.38333 -57
7.38611 -58
7.38889 -60
7.39167 -64
7.39444 -67
7.39722 -71
7.4 -70
7.40278 -71
7.40556 -71
7.40833 -75
7.41111 -77
7.41389 -76
7.41667 -72
7.41944 -70
7.42222 -72
7.425 -73
7.42778 -74
7.43056 -74
7.43333 -73
7.43611 -72
7.43889 -73
7.44167 -74
7.44444 -77
7.44722 -77
7.45 -73
7.45278 -72
7.45556 -76
7.45833 -77
7.46111 -79
7.46389 -79
7.46667 -77
7.46944 -76
7.47222 -79
7.475 -85
7.47778 -93
7.48056 -100
7.48333 -103
7.48611 -106
7.48889 -112
7.49167 -117
7.49444 -106
7.49722 -82
7.5 -51
7.50278 -21
7.50556 21
7.50833 71
7.51111 120
7.51389 162
7.51667 178
7.51944 166
7.52222 116
7.525 37
7.52778 -41
7.53056 -90
7.53333 -105
7.53611 -99
7.53889 -93
7.54167 -87
7.54444 -83
7.54722 -83
7.55 -83
7.55278 -80
7.55556 -79
7.55833 -81
7.56111 -85
7.56389 -87
7.56667 -83
7.56944 -83
7.57222 -83
7.575 -83
7.57778 -86
7.58056 -84
7.58333 -82
7.58611 -81
7.58889 -84
7.59167 -82
7.59444 -84
7.59722 -80
7.6 -79
7.60278 -77
7.60556 -80
7.60833 -80
7.61111 -80
7.61389 -80
7.61667 -79
7.61944 -80
7.62222 -80
7.625 -80
7.62778 -82
7.63056 -79
7.63333 -82
7.63611 -80
7.63889 -79
7.64167 -81
7.64444 -82
7.64722 -83
7.65 -81
7.65278 -80
7.65556 -79
7.65833 -81
7.66111 -83
7.66389 -81
7.66667 -83
7.66944 -82
7.67222 -81
7.675 -81
7.67778 -82
7.68056 -81
7.68333 -80
7.68611 -79
7.68889 -81
7.69167 -81
7.69444 -80
7.69722 -79
7.7 -78
7.70278 -79
7.70556 -78
7.70833 -79
7.71111 -84
7.71389 -83
7.71667 -81
7.71944 -80
7.72222 -80
7.725 -83
7.72778 -84
7.73056 -82
7.73333 -79
7.73611 -80
7.73889 -81
7.74167 -83
7.74444 -87
7.74722 -83
7.75 -83
7.75278 -80
7.75556 -81
7.75833 -84
7.76111 -86
7.76389 -85
7.76667 -82
7.76944 -82
7.77222 -81
7.775 -83
7.77778 -85
7.78056 -85
7.78333 -84
7.78611 -82
7.78889 -82
7.79167 -84
7.79444 -86
7.79722 -85
7.8 -84
7.80278 -81
7.80556 -83
7.80833 -82
7.81111 -82
7.81389 -77
7.81667 -74
7.81944 -72
7.82222 -70
7.825 -70
7.82778 -70
7.83056 -67
7.83333 -64
7.83611 -61
7.83889 -63
7.84167 -63
7.84444 -64
7.84722 -61
7.85 -61
7.85278 -59
7.85556 -58
7.85833 -59
7.86111 -59
7.86389 -57
7.86667 -57
7.86944 -54
7.87222 -56
7.875 -56
7.87778 -59
7.88056 -56
7.88333 -57
7.88611 -55
7.88889 -57
7.89167 -59
7.89444 -61
7.89722 -59
7.9 -57
7.90278 -57
7.90556 -58
7.90833 -60
7.91111 -62
7.91389 -59
7.91667 -60
7.91944 -58
7.92222 -57
7.925 -61
7.92778 -62
7.93056 -60
7.93333 -59
7.93611 -61
7.93889 -60
7.94167 -61
7.94444 -64
7.94722 -64
7.95 -62
7.95278 -60
7.95556 -62
7.95833 -64
7.96111 -68
7.96389 -66
7.96667 -62
7.96944 -63
7.97222 -65
7.975 -65
7.97778 -69
7.98056 -66
7.98333 -64
7.98611 -64
7.98889 -67
7.99167 -67
7.99444 -71
7.99722 -68
8 -64
8.00278 -63
8.00556 -66
8.00833 -68
8.01111 -68
8.01389 -70
8.01667 -66
8.01944 -66
8.02222 -68
8.025 -70
8.02778 -71
8.03056 -69
8.03333 -67
8.03611 -67
8.03889 -68
8.04167 -68
8.04444 -69
8.04722 -67
8.05 -67
8.05278 -65
8.05556 -65
8.05833 -67
8.06111 -68
8.06389 -68
8.06667 -64
8.06944 -63
8.07222 -64
8.075 -67
8.07778 -67
8.08056 -64
8.08333 -65
8.08611 -63
8.08889 -64
8.09167 -64
8.09444 -69
8.09722 -67
8.1 -64
8.10278 -62
8.10556 -64
8.10833 -64
8.11111 -68
8.11389 -66
8.11667 -64
8.11944 -62
8.12222 -62
8.125 -62
8.12778 -59
8.13056 -56
8.13333 -51
8.13611 -50
8.13889 -50
8.14167 -51
8.14444 -52
8.14722 -48
8.15 -44
8.15278 -46
8.15556 -46
8.15833 -43
8.16111 -44
8.16389 -45
8.16667 -46
8.16944 -46
8.17222 -47
8.175 -49
8.17778 -51
8.18056 -48
8.18333 -47
8.18611 -49
8.18889 -47
8.19167 -46
8.19444 -44
8.19722 -39
8.2 -44
8.20278 -49
8.20556 -52
8.20833 -54
8.21111 -58
8.21389 -60
8.21667 -61
8.21944 -61
8.22222 -64
8.225 -66
8.22778 -70
8.23056 -70
8.23333 -67
8.23611 -67
8.23889 -67
8.24167 -68
8.24444 -70
8.24722 -70
8.25 -69
8.25278 -67
8.25556 -69
8.25833 -71
8.26111 -74
8.26389 -70
8.26667 -69
8.26944 -67
8.27222 -67
8.275 -67
8.27778 -71
8.28056 -71
8.28333 -69
8.28611 -71
8.28889 -79
8.29167 -90
8.29444 -96
8.29722 -101
8.3 -105
8.30278 -109
8.30556 -100
8.30833 -79
8.31111 -51
8.31389 -14
8.31667 29
8.31944 85
8.32222 137
8.325 175
8.32778 185
8.33056 159
8.33333 94
8.33611 4
8.33889 -65
8.34167 -94
8.34444 -97
8.34722 -82
8.35 -73
8.35278 -71
8.35556 -73
8.35833 -76
8.36111 -77
8.36389 -76
8.36667 -74
8.36944 -74
8.37222 -75
8.375 -77
8.37778 -79
8.38056 -77
8.38333 -76
8.38611 -77
8.38889 -75
8.39167 -78
8.39444 -81
8.39722 -81
8.4 -78
8.40278 -77
8.40556 -77
8.40833 -78
8.41111 -82
8.41389 -80
8.41667 -78
8.41944 -77
8.42222 -77
8.425 -79
8.42778 -78
8.43056 -79
8.43333 -76
8.43611 -75
8.43889 -76
8.44167 -77
8.44444 -80
8.44722 -77
8.45 -76
8.45278 -75
8.45556 -76
8.45833 -79
8.46111 -79
8.46389 -77
8.46667 -75
8.46944 -74
8.47222 -73
8.475 -77
8.47778 -79
8.48056 -77
8.48333 -77
8.48611 -74
8.48889 -75
8.49167 -74
8.49444 -75
8.49722 -75
8.5 -74
8.50278 -71
8.50556 -73
8.50833 -76
8.51111 -75
8.51389 -74
8.51667 -76
8.51944 -73
8.52222 -74
8.525 -75
8.52778 -78
8.53056 -76
8.53333 -75
8.53611 -76
8.53889 -74
8.54167 -75
8.54444 -76
8.54722 -77
8.55 -77
8.55278 -74
8.55556 -75
8.55833 -75
8.56111 -76
8.56389 -76
8.56667 -76
8.56944 -76
8.57222 -75
8.575 -78
8.57778 -79
8.58056 -77
8.58333 -77
8.58611 -75
8.58889 -75
8.59167 -77
8.59444 -77
8.59722 -78
8.6 -74
8.60278 -73
8.60556 -73
8.60833 -75
8.61111 -77
8.61389 -70
8.61667 -69
8.61944 -65
8.62222 -65
8.625 -66
8.62778 -65
8.63056 -65
8.63333 -63
8.63611 -63
8.63889 -63
8.64167 -60
8.64444 -60
8.64722 -57
8.65 -54
8.65278 -53
8.65556 -52
8.65833 -55
8.66111 -57
8.66389 -53
8.66667 -51
8.66944 -50
8.67222 -54
8.675 -56
8.67778 -57
8.68056 -57
8.68333 -56
8.68611 -54
8.68889 -54
8.69167 -54
8.69444 -57
8.69722 -56
8.7 -55
8.70278 -54
8.70556 -53
8.70833 -55
8.71111 -58
8.71389 -57
8.71667 -57
8.71944 -55
8.72222 -54
8.725 -56
8.72778 -59
8.73056 -56
8.73333 -54
8.73611 -54
8.73889 -55
8.74167 -57
8.74444 -60
8.74722 -59
8.75 -58
8.75278 -59
8.75556 -60
8.75833 -58
8.76111 -61
8.76389 -59
8.76667 -58
8.76944 -59
8.77222 -58
8.775 -62
8.77778 -64
8.78056 -63
8.78333 -63
8.78611 -60
8.78889 -61
8.79167 -63
8.79444 -66
8.79722 -64
8.8 -61
8.80278 -63
8.80556 -61
8.80833 -63
8.81111 -65
8.81389 -62
8.81667 -59
8.81944 -60
8.82222 -61
8.825 -62
8.82778 -65
8.83056 -63
8.83333 -63
8.83611 -61
8.83889 -61
8.84167 -65
8.84444 -64
8.84722 -64
8.85 -62
8.85278 -61
8.85556 -64
8.85833 -64
8.86111 -64
8.86389 -62
8.86667 -61
8.86944 -58
8.87222 -57
8.875 -58
8.87778 -61
8.88056 -62
8.88333 -60
8.88611 -60
8.88889 -62
8.89167 -63
8.89444 -63
8.89722 -62
8.9 -59
8.90278 -60
8.90556 -59
8.90833 -63
8.91111 -62
8.91389 -58
8.91667 -53
8.91944 -48
8.92222 -51
8.925 -48
8.92778 -50
8.93056 -45
8.93333 -45
8.93611 -43
8.93889 -42
8.94167 -40
8.94444 -39
8.94722 -39
8.95 -36
8.95278 -35
8.95556 -36
8.95833 -41
8.96111 -43
8.96389 -42
8.96667 -42
8.96944 -42
8.97222 -42
8.975 -43
8.97778 -45
8.98056 -42
8.98333 -36
8.98611 -34
8.98889 -37
8.99167 -48
8.99444 -51
8.99722 -51
9 -54
9.00278 -55
9.00556 -57
9.00833 -60
9.01111 -60
9.01389 -63
9.01667 -61
9.01944 -60
9.02222 -59
9.025 -60
9.02778 -63
9.03056 -62
9.03333 -62
9.03611 -60
9.03889 -60
9.04167 -61
9.04444 -63
9.04722 -65
9.05 -64
9.05278 -64
9.05556 -64
9.05833 -65
9.06111 -68
9.06389 -67
9.06667 -65
9.06944 -63
9.07222 -64
9.075 -69
9.07778 -74
9.08056 -79
9.08333 -85
9.08611 -89
9.08889 -93
9.09167 -102
9.09444 -106
9.09722 -97
9.1 -74
9.10278 -47
9.10556 -18
9.10833 21
9.11111 75
9.11389 131
9.11667 164
9.11944 173
9.12222 147
9.125 90
9.12778 12
9.13056 -54
9.13333 -86
9.13611 -92
9.13889 -83
9.14167 -77
9.14444 -73
9.14722 -71
9.15 -71
9.15278 -69
9.15556 -70
9.15833 -70
9.16111 -72
9.16389 -69
9.16667 -68
9.16944 -68
9.17222 -67
9.175 -67
9.17778 -71
9.18056 -69
9.18333 -68
9.18611 -67
9.18889 -68
9.19167 -70
9.19444 -73
9.19722 -72
9.2 -73
9.20278 -70
9.20556 -69
9.20833 -73
9.21111 -72
9.21389 -70
9.21667 -71
9.21944 -70
9.22222 -71
9.225 -70
9.22778 -72
9.23056 -67
9.23333 -67
9.23611 -66
9.23889 -68
9.24167 -70
9.24444 -70
9.24722 -69
9.25 -67
9.25278 -69
9.25556 -71
9.25833 -71
9.26111 -74
9.26389 -71
9.26667 -70
9.26944 -69
9.27222 -73
9.275 -73
9.27778 -74
9.28056 -73
9.28333 -71
9.28611 -69
9.28889 -69
9.29167 -69
9.29444 -68
9.29722 -67
9.3 -65
9.30278 -67
9.30556 -69
9.30833 -70
9.31111 -70
9.31389 -71
9.31667 -71
9.31944 -72
9.32222 -70
9.325 -72
9.32778 -73
9.33056 -69
9.33333 -69
9.33611 -66
9.33889 -70
9.34167 -69
9.34444 -71
9.34722 -70
9.35 -68
9.35278 -67
9.35556 -70
9.35833 -73
9.36111 -76
9.36389 -77
9.36667 -71
9.36944 -72
9.37222 -71
9.375 -74
9.37778 -77
9.38056 -74
9.38333 -74
9.38611 -70
9.38889 -69
9.39167 -73
9.39444 -73
9.39722 -72
9.4 -69
9.40278 -66
9.40556 -66
9.40833 -66
9.41111 -67
9.41389 -63
9.41667 -62
9.41944 -57
9.42222 -58
9.425 -58
9.42778 -60
9.43056 -56
9.43333 -55
9.43611 -52
9.43889 -52
9.44167 -54
9.44444 -53
9.44722 -51
9.45 -50
9.45278 -49
9.45556 -49
9.45833 -51
9.46111 -53
9.46389 -52
9.46667 -51
9.46944 -48
9.47222 -50
9.475 -51
9.47778 -55
9.48056 -55
9.48333 -53
9.48611 -54
9.48889 -55
9.49167 -56
9.49444 -58
9.49722 -56
9.5 -55
9.50278 -54
9.50556 -54
9.50833 -56
9.51111 -58
9.51389 -56
9.51667 -57
9.51944 -55
9.52222 -58
9.525 -56
9.52778 -58
9.53056 -56
9.53333 -57
9.53611 -55
9.53889 -56
9.54167 -59
9.54444 -61
9.54722 -60
9.55 -60
9.55278 -61
9.55556 -63
9.55833 -64
9.56111 -62
9.56389 -62
9.56667 -60
9.56944 -62
9.57222 -62
9.575 -64
9.57778 -65
9.58056 -62
9.58333 -64
9.58611 -62
9.58889 -62
9.59167 -63
9.59444 -65
9.59722 -63
9.6 -61
9.60278 -63
9.60556 -62
9.60833 -64
9.61111 -65
9.61389 -65
9.61667 -64
9.61944 -61
9.62222 -61
9.625 -60
9.62778 -63
9.63056 -60
9.63333 -62
9.63611 -63
9.63889 -61
9.64167 -62
9.64444 -64
9.64722 -62
9.65 -60
9.65278 -59
9.65556 -60
9.65833 -63
9.66111 -65
9.66389 -65
9.66667 -61
9.66944 -62
9.67222 -58
9.675 -63
9.67778 -65
9.68056 -64
9.68333 -58
9.68611 -56
9.68889 -52
9.69167 -52
9.69444 -53
9.69722 -52
9.7 -50
9.70278 -46
9.70556 -44
9.70833 -44
9.71111 -47
9.71389 -44
9.71667 -41
9.71944 -41
9.72222 -42
9.725 -42
9.72778 -46
9.73056 -48
9.73333 -46
9.73611 -45
9.73889 -47
9.74167 -50
9.74444 -53
9.74722 -52
9.75 -49
9.75278 -43
9.75556 -43
9.75833 -49
9.76111 -56
9.76389 -55
9.76667 -55
9.76944 -59
9.77222 -62
9.775 -65
9.77778 -68
9.78056 -68
9.78333 -65
9.78611 -63
9.78889 -62
9.79167 -63
9.79444 -66
9.79722 -66
9.8 -65
9.80278 -65
9.80556 -67
9.80833 -69
9.81111 -70
9.81389 -70
9.81667 -70
9.81944 -69
9.82222 -70
9.825 -73
9.82778 -72
9.83056 -70
9.83333 -71
9.83611 -69
9.83889 -69
9.84167 -70
9.84444 -73
9.84722 -76
9.85 -81
9.85278 -85
9.85556 -88
9.85833 -94
9.86111 -104
9.86389 -108
9.86667 -98
9.86944 -78
9.87222 -52
9.875 -23
9.87778 17
9.88056 72
9.88333 123
9.88611 156
9.88889 167
9.89167 144
9.89444 82
9.89722 6
9.9 -51
9.90278 -83
9.90556 -94
9.90833 -93
9.91111 -87
9.91389 -79
9.91667 -75
9.91944 -74
9.92222 -75
9.925 -75
9.92778 -78
9.93056 -80
9.93333 -76
9.93611 -77
9.93889 -77
9.94167 -77
9.94444 -77
9.94722 -74
9.95 -74
9.95278 -72
9.95556 -76
9.95833 -76
9.96111 -77
9.96389 -74
9.96667 -74
9.96944 -73
9.97222 -75
9.975 -77
9.97778 -78
9.98056 -78
9.98333 -77
9.98611 -77
9.98889 -79
9.99167 -78
9.99444 -80
9.99722 -81
10 -78
10.0028 -79
10.0056 -78
10.0083 -81
10.0111 -81
10.0139 -80
10.0167 -75
10.0194 -76
10.0222 -78
10.025 -79
10.0278 -79
10.0306 -78
10.0333 -78
10.0361 -77
10.0389 -81
10.0417 -80
10.0444 -81
10.0472 -79
10.05 -78
10.0528 -79
10.0556 -78
10.0583 -80
10.0611 -81
10.0639 -81
10.0667 -78
10.0694 -78
10.0722 -79
10.075 -80
10.0778 -80
10.0806 -79
10.0833 -76
10.0861 -74
10.0889 -76
10.0917 -77
10.0944 -79
10.0972 -78
10.1 -76
10.1028 -76
10.1056 -77
10.1083 -78
10.1111 -78
10.1139 -80
10.1167 -80
10.1194 -81
10.1222 -83
10.125 -84
10.1278 -86
10.1306 -86
10.1333 -85
10.1361 -84
10.1389 -86
10.1417 -89
10.1444 -93
10.1472 -91
10.15 -88
10.1528 -85
10.1556 -87
10.1583 -90
10.1611 -88
10.1639 -89
10.1667 -85
10.1694 -85
10.1722 -85
10.175 -86
10.1778 -86
10.1806 -83
10.1833 -83
10.1861 -77
10.1889 -75
10.1917 -77
10.1944 -74
10.1972 -72
10.2 -70
10.2028 -67
10.2056 -67
10.2083 -65
10.2111 -64
10.2139 -65
10.2167 -61
10.2194 -59
10.2222 -60
10.225 -58
10.2278 -59
10.2306 -58
10.2333 -58
10.2361 -57
10.2389 -57
10.2417 -57
10.2444 -58
10.2472 -58
10.25 -57
10.2528 -54
10.2556 -54
10.2583 -56
10.2611 -58
10.2639 -57
10.2667 -55
10.2694 -55
10.2722 -55
10.275 -58
10.2778 -61
10.2806 -61
10.2833 -60
10.2861 -56
10.2889 -58
10.2917 -61
10.2944 -63
10.2972 -62
10.3 -59
10.3028 -58
10.3056 -60
10.3083 -61
10.3111 -61
10.3139 -62
10.3167 -60
10.3194 -59
10.3222 -61
10.325 -61
10.3278 -63
10.3306 -62
10.3333 -62
10.3361 -59
10.3389 -60
10.3417 -61
10.3444 -62
10.3472 -61
10.35 -61
10.3528 -59
10.3556 -60
10.3583 -63
10.3611 -65
10.3639 -64
10.3667 -64
10.3694 -63
10.3722 -62
10.375 -65
10.3778 -67
10.3806 -66
10.3833 -64
10.3861 -64
10.3889 -62
10.3917 -66
10.3944 -66
10.3972 -65
10.4 -62
10.4028 -61
10.4056 -61
10.4083 -64
10.4111 -66
10.4139 -65
10.4167 -60
10.4194 -62
10.4222 -61
10.425 -63
10.4278 -66
10.4306 -66
10.4333 -66
10.4361 -64
10.4389 -65
10.4417 -65
10.4444 -67
10.4472 -65
10.45 -63
10.4528 -62
10.4556 -63
10.4583 -64
10.4611 -65
10.4639 -63
10.4667 -62
10.4694 -61
10.4722 -62
10.475 -63
10.4778 -64
10.4806 -63
10.4833 -62
10.4861 -59
10.4889 -59
10.4917 -61
10.4944 -62
10.4972 -60
10.5 -56
10.5028 -55
10.5056 -53
10.5083 -55
10.5111 -55
10.5139 -52
10.5167 -48
10.5194 -48
10.5222 -47
10.525 -48
10.5278 -47
10.5306 -45
10.5333 -43
10.5361 -41
10.5389 -41
10.5417 -42
10.5444 -43
10.5472 -44
10.55 -44
10.5528 -43
10.5556 -44
10.5583 -44
10.5611 -46
10.5639 -46
10.5667 -48
10.5694 -42
10.5722 -44
10.575 -46
10.5778 -51
10.5806 -47
10.5833 -42
10.5861 -38
10.5889 -41
10.5917 -45
10.5944 -52
10.5972 -55
10.6 -56
10.6028 -57
10.6056 -61
10.6083 -64
10.6111 -63
10.6139 -67
10.6167 -65
10.6194 -67
10.6222 -64
10.625 -65
10.6278 -64
10.6306 -65
10.6333 -65
10.6361 -62
10.6389 -61
10.6417 -64
10.6444 -64
10.6472 -66
10.65 -64
10.6528 -64
10.6556 -66
10.6583 -66
10.6611 -72
10.6639 -71
10.6667 -66
10.6694 -65
10.6722 -65
10.675 -67
10.6778 -70
10.6806 -68
10.6833 -69
10.6861 -71
10.6889 -77
10.6917 -85
10.6944 -90
10.6972 -94
10.7 -97
10.7028 -102
10.7056 -103
10.7083 -91
10.7111 -65
10.7139 -33
10.7167 2
10.7194 50
10.7222 103
10.725 148
10.7278 177
10.7306 187
10.7333 167
10.7361 105
10.7389 24
10.7417 -46
10.7444 -85
10.7472 -91
10.75 -84
10.7528 -76
10.7556 -72
10.7583 -73
10.7611 -75
10.7639 -76
10.7667 -71
10.7694 -71
10.7722 -74
10.775 -75
10.7778 -77
10.7806 -76
10.7833 -73
10.7861 -74
10.7889 -74
10.7917 -73
10.7944 -76
10.7972 -74
10.8 -75
10.8028 -73
10.8056 -74
10.8083 -76
10.8111 -75
10.8139 -73
10.8167 -72
10.8194 -72
10.8222 -71
10.825 -71
10.8278 -74
10.8306 -73
10.8333 -71
10.8361 -70
10.8389 -70
10.8417 -70
10.8444 -72
10.8472 -72
10.85 -72
10.8528 -70
10.8556 -71
10.8583 -73
10.8611 -74
10.8639 -72
10.8667 -70
10.8694 -71
10.8722 -70
10.875 -71
10.8778 -74
10.8806 -75
10.8833 -72
10.8861 -70
10.8889 -69
10.8917 -70
10.8944 -74
10.8972 -74
10.9 -71
10.9028 -70
10.9056 -69
10.9083 -72
10.9111 -74
10.9139 -73
10.9167 -72
10.9194 -70
10.9222 -71
10.925 -73
10.9278 -73
10.9306 -74
10.9333 -73
10.9361 -70
10.9389 -70
10.9417 -72
10.9444 -72
10.9472 -71
10.95 -69
10.9528 -70
10.9556 -69
10.9583 -71
10.9611 -74
10.9639 -73
10.9667 -71
10.9694 -72
10.9722 -73
10.975 -73
10.9778 -76
10.9806 -77
10.9833 -75
10.9861 -74
10.9889 -75
10.9917 -77
10.9944 -79
10.9972 -75
11 -77
11.0028 -76
11.0056 -74
11.0083 -77
11.0111 -77
11.0139 -76
11.0167 -74
11.0194 -72
11.0222 -70
11.025 -67
11.0278 -66
11.0306 -63
11.0333 -59
11.0361 -58
11.0389 -58
11.0417 -57
11.0444 -58
11.0472 -56
11.05 -56
11.0528 -52
11.0556 -51
11.0583 -54
11.0611 -55
11.0639 -52
11.0667 -50
11.0694 -49
11.0722 -50
11.075 -52
11.0778 -53
11.0806 -49
11.0833 -47
11.0861 -49
11.0889 -48
11.0917 -50
11.0944 -53
11.0972 -50
11.1 -50
11.1028 -50
11.1056 -50
11.1083 -51
11.1111 -53
11.1139 -52
11.1167 -48
11.1194 -50
11.1222 -49
11.125 -50
11.1278 -54
11.1306 -53
11.1333 -54
11.1361 -53
11.1389 -53
11.1417 -55
11.1444 -57
11.1472 -55
11.15 -53
11.1528 -54
11.1556 -54
11.1583 -56
11.1611 -57
11.1639 -57
11.1667 -56
11.1694 -57
11.1722 -56
11.175 -57
11.1778 -60
11.1806 -58
11.1833 -57
11.1861 -54
11.1889 -56
11.1917 -59
11.1944 -58
11.1972 -58
11.2 -59
11.2028 -58
11.2056 -57
11.2083 -61
11.2111 -63
11.2139 -62
11.2167 -62
11.2194 -58
11.2222 -59
11.225 -62
11.2278 -64
11.2306 -63
11.2333 -62
11.2361 -60
11.2389 -60
11.2417 -63
11.2444 -64
11.2472 -63
11.25 -64
11.2528 -58
11.2556 -60
11.2583 -60
11.2611 -63
11.2639 -62
11.2667 -60
11.2694 -60
11.2722 -58
11.275 -62
11.2778 -65
11.2806 -63
11.2833 -61
11.2861 -61
11.2889 -61
11.2917 -63
11.2944 -65
11.2972 -64
11.3 -62
11.3028 -60
11.3056 -59
11.3083 -63
11.3111 -64
11.3139 -61
11.3167 -60
11.3194 -58
11.3222 -59
11.325 -59
11.3278 -62
11.3306 -59
11.3333 -59
11.3361 -57
11.3389 -59
11.3417 -59
11.3444 -62
11.3472 -60
11.35 -57
11.3528 -56
11.3556 -55
11.3583 -56
11.3611 -53
11.3639 -49
11.3667 -46
11.3694 -48
11.3722 -48
11.375 -48
11.3778 -49
11.3806 -44
11.3833 -44
11.3861 -43
11.3889 -40
11.3917 -40
11.3944 -42
11.3972 -41
11.4 -39
11.4028 -41
11.4056 -42
11.4083 -43
11.4111 -45
11.4139 -45
11.4167 -40
11.4194 -40
11.4222 -42
11.425 -45
11.4278 -44
11.4306 -39
11.4333 -36
11.4361 -35
11.4389 -41
11.4417 -49
11.4444 -53
11.4472 -55
11.45 -56
11.4528 -57
11.4556 -60
11.4583 -62
11.4611 -65
11.4639 -64
11.4667 -65
11.4694 -62
11.4722 -65
11.475 -66
11.4778 -68
11.4806 -67
11.4833 -66
11.4861 -65
11.4889 -64
11.4917 -68
11.4944 -69
11.4972 -68
11.5 -66
11.5028 -67
11.5056 -66
11.5083 -68
11.5111 -68
11.5139 -67
11.5167 -67
11.5194 -66
11.5222 -67
11.525 -69
11.5278 -75
11.5306 -79
11.5333 -86
11.5361 -88
11.5389 -90
11.5417 -90
11.5444 -95
11.5472 -96
11.55 -102
11.5528 -110
11.5556 -115
11.5583 -109
11.5611 -98
11.5639 -75
11.5667 -50
11.5694 -24
11.5722 12
11.575 57
11.5778 105
11.5806 148
11.5833 172
11.5861 178
11.5889 146
11.5917 85
11.5944 3
11.5972 -57
11.6 -87
11.6028 -90
11.6056 -87
11.6083 -77
11.6111 -76
11.6139 -74
11.6167 -74
11.6194 -74
11.6222 -72
11.625 -72
11.6278 -74
11.6306 -77
11.6333 -73
11.6361 -72
11.6389 -73
11.6417 -73
11.6444 -75
11.6472 -77
11.65 -72
11.6528 -73
11.6556 -71
11.6583 -75
11.6611 -76
11.6639 -75
11.6667 -71
11.6694 -71
11.6722 -72
11.675 -73
11.6778 -76
11.6806 -74
11.6833 -71
11.6861 -70
11.6889 -71
11.6917 -73
11.6944 -76
11.6972 -73
11.7 -71
11.7028 -71
11.7056 -73
11.7083 -77
11.7111 -78
11.7139 -75
11.7167 -71
11.7194 -73
11.7222 -72
11.725 -71
11.7278 -73
11.7306 -73
11.7333 -71
11.7361 -69
11.7389 -69
11.7417 -73
11.7444 -72
11.7472 -75
11.75 -71
11.7528 -72
11.7556 -73
11.7583 -73
11.7611 -74
11.7639 -72
11.7667 -71
11.7694 -72
11.7722 -73
11.775 -77
11.7778 -76
11.7806 -73
11.7833 -71
11.7861 -67
11.7889 -72
11.7917 -72
11.7944 -77
11.7972 -76
11.8 -75
11.8028 -72
11.8056 -72
11.8083 -73
11.8111 -75
11.8139 -73
11.8167 -71
11.8194 -72
11.8222 -70
11.825 -72
11.8278 -74
11.8306 -74
11.8333 -73
11.8361 -74
11.8389 -76
11.8417 -78
11.8444 -77
11.8472 -76
11.85 -74
11.8528 -74
11.8556 -73
11.8583 -73
11.8611 -78
11.8639 -75
11.8667 -74
11.8694 -71
11.8722 -73
11.875 -72
11.8778 -74
11.8806 -70
11.8833 -68
11.8861 -65
11.8889 -64
11.8917 -63
11.8944 -65
11.8972 -62
11.9 -59
11.9028 -57
11.9056 -58
11.9083 -58
11.9111 -55
11.9139 -54
11.9167 -53
11.9194 -52
11.9222 -52
11.925 -55
11.9278 -55
11.9306 -57
11.9333 -52
11.9361 -52
11.9389 -53
11.9417 -54
11.9444 -56
11.9472 -55
11.95 -51
11.9528 -51
11.9556 -49
11.9583 -51
11.9611 -52
11.9639 -51
11.9667 -51
11.9694 -52
11.9722 -53
11.975 -56
11.9778 -59
11.9806 -58
11.9833 -55
11.9861 -56
11.9889 -56
11.9917 -56
11.9944 -57
11.9972 -57
12 -56
12.0028 -54
12.0056 -57
12.0083 -60
12.0111 -62
12.0139 -60
12.0167 -58
12.0194 -56
12.0222 -60
12.025 -58
12.0278 -62
12.0306 -60
12.0333 -59
12.0361 -58
12.0389 -57
12.0417 -59
12.0444 -65
12.0472 -63
12.05 -62
12.0528 -61
12.0556 -60
12.0583 -63
12.0611 -66
12.0639 -64
12.0667 -64
12.0694 -63
12.0722 -64
12.075 -65
12.0778 -67
12.0806 -66
12.0833 -65
12.0861 -62
12.0889 -63
12.0917 -63
12.0944 -67
12.0972 -64
12.1 -62
12.1028 -63
12.1056 -62
12.1083 -64
12.1111 -67
12.1139 -65
12.1167 -65
12.1194 -63
12.1222 -62
12.125 -64
12.1278 -66
12.1306 -64
12.1333 -64
12.1361 -62
12.1389 -66
12.1417 -66
12.1444 -69
12.1472 -68
12.15 -66
12.1528 -64
12.1556 -63
12.1583 -67
12.1611 -67
12.1639 -66
12.1667 -62
12.1694 -62
12.1722 -63
12.175 -66
12.1778 -64
12.1806 -63
12.1833 -60
12.1861 -57
12.1889 -56
12.1917 -53
12.1944 -52
12.1972 -53
12.2 -52
12.2028 -51
12.2056 -52
12.2083 -50
12.2111 -51
12.2139 -48
12.2167 -46
12.2194 -41
12.2222 -42
12.225 -45
12.2278 -47
12.2306 -45
12.2333 -45
12.2361 -46
12.2389 -45
12.2417 -48
12.2444 -48
12.2472 -46
12.25 -47
12.2528 -50
12.2556 -50
12.2583 -51
12.2611 -47
12.2639 -44
12.2667 -41
12.2694 -43
12.2722 -48
12.275 -53
12.2778 -56
12.2806 -56
12.2833 -54
12.2861 -54
12.2889 -58
12.2917 -64
12.2944 -67
12.2972 -68
12.3 -66
12.3028 -66
12.3056 -67
12.3083 -70
12.3111 -72
12.3139 -70
12.3167 -70
12.3194 -69
12.3222 -70
12.325 -71
12.3278 -73
12.3306 -72
12.3333 -71
12.3361 -70
12.3389 -68
12.3417 -72
12.3444 -74
12.3472 -74
12.35 -71
12.3528 -69
12.3556 -70
12.3583 -74
12.3611 -77
12.3639 -82
12.3667 -88
12.3694 -92
12.3722 -98
12.375 -108
12.3778 -113
12.3806 -110
12.3833 -97
12.3861 -73
12.3889 -51
12.3917 -25
12.3944 18
12.3972 72
12.4 120
12.4028 150
12.4056 159
12.4083 140
12.4111 88
12.4139 19
12.4167 -37
12.4194 -74
12.4222 -94
12.425 -98
12.4278 -94
12.4306 -88
12.4333 -85
12.4361 -82
12.4389 -82
12.4417 -82
12.4444 -84
12.4472 -80
12.45 -79
12.4528 -81
12.4556 -82
12.4583 -81
12.4611 -84
12.4639 -79
12.4667 -79
12.4694 -78
12.4722 -79
12.475 -79
12.4778 -82
12.4806 -80
12.4833 -80
12.4861 -82
12.4889 -80
12.4917 -81
12.4944 -82
12.4972 -82
12.5 -80
12.5028 -78
12.5056 -78
12.5083 -80
12.5111 -80
12.5139 -79
12.5167 -78
12.5194 -77
12.5222 -78
12.525 -82
12.5278 -82
12.5306 -82
12.5333 -83
12.5361 -82
12.5389 -81
12.5417 -84
12.5444 -84
12.5472 -84
12.55 -83
12.5528 -82
12.5556 -83
12.5583 -85
12.5611 -85
12.5639 -84
12.5667 -85
12.5694 -84
12.5722 -82
12.575 -82
12.5778 -83
12.5806 -82
12.5833 -82
12.5861 -80
12.5889 -81
12.5917 -81
12.5944 -85
12.5972 -84
12.6 -82
12.6028 -80
12.6056 -81
12.6083 -83
12.6111 -84
12.6139 -82
12.6167 -82
12.6194 -80
12.6222 -82
12.625 -83
12.6278 -84
12.6306 -82
12.6333 -80
12.6361 -78
12.6389 -80
12.6417 -83
12.6444 -84
12.6472 -83
12.65 -83
12.6528 -80
12.6556 -83
12.6583 -86
12.6611 -90
12.6639 -88
12.6667 -88
12.6694 -87
12.6722 -87
12.675 -88
12.6778 -90
12.6806 -87
12.6833 -88
12.6861 -86
12.6889 -88
12.6917 -89
12.6944 -89
12.6972 -88
12.7 -87
12.7028 -84
12.7056 -83
12.7083 -82
12.7111 -81
12.7139 -76
12.7167 -75
12.7194 -74
12.7222 -74
12.725 -74
12.7278 -72
12.7306 -71
12.7333 -65
12.7361 -61
12.7389 -62
12.7417 -64
12.7444 -65
12.7472 -65
12.75 -63
12.7528 -60
12.7556 -61
12.7583 -64
12.7611 -66
12.7639 -66
12.7667 -62
12.7694 -62
12.7722 -62
12.775 -61
12.7778 -62
12.7806 -64
12.7833 -61
12.7861 -60
12.7889 -60
12.7917 -61
12.7944 -64
12.7972 -64
12.8 -63
12.8028 -63
12.8056 -62
12.8083 -66
12.8111 -67
12.8139 -67
12.8167 -64
12.8194 -63
12.8222 -63
12.825 -65
12.8278 -66
12.8306 -67
12.8333 -64
12.8361 -60
12.8389 -60
12.8417 -64
12.8444 -64
12.8472 -66
12.85 -64
12.8528 -64
12.8556 -65
12.8583 -68
12.8611 -71
12.8639 -69
12.8667 -70
12.8694 -69
12.8722 -69
12.875 -72
12.8778 -72
12.8806 -69
12.8833 -68
12.8861 -68
12.8889 -71
12.8917 -70
12.8944 -70
12.8972 -71
12.9 -68
12.9028 -67
12.9056 -68
12.9083 -70
12.9111 -71
12.9139 -71
12.9167 -71
12.9194 -69
12.9222 -69
12.925 -70
12.9278 -72
12.9306 -73
12.9333 -73
12.9361 -70
12.9389 -70
12.9417 -72
12.9444 -74
12.9472 -72
12.95 -70
12.9528 -67
12.9556 -70
12.9583 -70
12.9611 -69
12.9639 -68
12.9667 -68
12.9694 -68
12.9722 -68
12.975 -69
12.9778 -70
12.9806 -72
12.9833 -70
12.9861 -67
12.9889 -69
12.9917 -70
12.9944 -70
12.9972 -71
13 -68
13.0028 -67
13.0056 -66
13.0083 -68
13.0111 -71
13.0139 -71
13.0167 -66
13.0194 -63
13.0222 -63
13.025 -63
13.0278 -64
13.0306 -60
13.0333 -60
13.0361 -56
13.0389 -53
13.0417 -56
13.0444 -57
13.0472 -53
13.05 -47
13.0528 -46
13.0556 -46
13.0583 -49
13.0611 -51
13.0639 -50
13.0667 -49
13.0694 -50
13.0722 -51
13.075 -53
13.0778 -54
13.0806 -58
13.0833 -56
13.0861 -55
13.0889 -52
13.0917 -51
13.0944 -52
13.0972 -55
13.1 -59
13.1028 -60
13.1056 -61
13.1083 -67
13.1111 -71
13.1139 -70
13.1167 -70
13.1194 -70
13.1222 -71
13.125 -74
13.1278 -74
13.1306 -72
13.1333 -73
13.1361 -71
13.1389 -73
13.1417 -75
13.1444 -77
13.1472 -76
13.15 -75
13.1528 -71
13.1556 -74
13.1583 -77
13.1611 -78
13.1639 -78
13.1667 -74
13.1694 -72
13.1722 -74
13.175 -76
13.1778 -77
13.1806 -76
13.1833 -75
13.1861 -74
13.1889 -76
13.1917 -81
13.1944 -89
13.1972 -93
13.2 -96
13.2028 -97
13.2056 -105
13.2083 -111
13.2111 -107
13.2139 -90
13.2167 -65
13.2194 -37
13.2222 -5
13.225 37
13.2278 86
13.2306 132
13.2333 163
13.2361 170
13.2389 150
13.2417 97
13.2444 22
13.2472 -42
13.25 -78
13.2528 -92
13.2556 -97
13.2583 -94
13.2611 -90
13.2639 -85
13.2667 -83
13.2694 -81
13.2722 -83
13.275 -83
13.2778 -84
13.2806 -80
13.2833 -79
13.2861 -77
13.2889 -79
13.2917 -80
13.2944 -84
13.2972 -82
13.3 -80
13.3028 -80
13.3056 -81
13.3083 -81
13.3111 -87
13.3139 -84
13.3167 -82
13.3194 -81
13.3222 -83
13.325 -86
13.3278 -88
13.3306 -87
13.3333 -83
13.3361 -84
13.3389 -86
13.3417 -83
13.3444 -86
13.3472 -85
13.35 -84
13.3528 -84
13.3556 -83
13.3583 -85
13.3611 -85
13.3639 -84
13.3667 -82
13.3694 -82
13.3722 -82
13.375 -84
13.3778 -86
13.3806 -84
13.3833 -83
13.3861 -79
13.3889 -81
13.3917 -83
13.3944 -86
13.3972 -84
13.4 -84
13.4028 -83
13.4056 -84
13.4083 -85
13.4111 -88
13.4139 -86
13.4167 -85
13.4194 -83
13.4222 -84
13.425 -85
13.4278 -88
13.4306 -86
13.4333 -86
13.4361 -85
13.4389 -84
13.4417 -83
13.4444 -85
13.4472 -86
13.45 -85
13.4528 -83
13.4556 -81
13.4583 -81
13.4611 -85
13.4639 -83
13.4667 -84
13.4694 -84
13.4722 -84
13.475 -87
13.4778 -87
13.4806 -88
13.4833 -84
13.4861 -86
13.4889 -90
13.4917 -91
13.4944 -93
13.4972 -93
13.5 -93
13.5028 -93
13.5056 -93
13.5083 -94
13.5111 -98
13.5139 -97
13.5167 -92
13.5194 -91
13.5222 -92
13.525 -91
13.5278 -91
13.5306 -88
13.5333 -85
13.5361 -83
13.5389 -80
13.5417 -81
13.5444 -80
13.5472 -77
13.55 -73
13.5528 -73
13.5556 -72
13.5583 -74
13.5611 -75
13.5639 -71
13.5667 -68
13.5694 -66
13.5722 -66
13.575 -66
13.5778 -68
13.5806 -67
13.5833 -64
13.5861 -61
13.5889 -63
13.5917 -64
13.5944 -64
13.5972 -64
13.6 -63
13.6028 -62
13.6056 -62
13.6083 -63
13.6111 -66
13.6139 -64
13.6167 -64
13.6194 -62
13.6222 -64
13.625 -66
13.6278 -68
13.6306 -66
13.6333 -65
13.6361 -65
13.6389 -64
13.6417 -68
13.6444 -70
13.6472 -68
13.65 -64
13.6528 -63
13.6556 -65
13.6583 -68
13.6611 -69
13.6639 -69
13.6667 -68
13.6694 -66
13.6722 -67
13.675 -69
13.6778 -72
13.6806 -71
13.6833 -68
13.6861 -66
13.6889 -67
13.6917 -69
13.6944 -73
13.6972 -74
13.7 -70
13.7028 -68
13.7056 -67
13.7083 -72
13.7111 -71
13.7139 -68
13.7167 -67
13.7194 -67
13.7222 -64
13.725 -67
13.7278 -71
13.7306 -70
13.7333 -69
13.7361 -68
13.7389 -67
13.7417 -70
13.7444 -74
13.7472 -72
13.75 -71
13.7528 -70
13.7556 -69
13.7583 -73
13.7611 -72
13.7639 -72
13.7667 -70
13.7694 -69
13.7722 -71
13.775 -71
13.7778 -73
13.7806 -72
13.7833 -69
13.7861 -69
13.7889 -70
13.7917 -71
13.7944 -72
13.7972 -71
13.8 -70
13.8028 -67
13.8056 -67
13.8083 -71
13.8111 -69
13.8139 -68
13.8167 -66
13.8194 -68
13.8222 -69
13.825 -70
13.8278 -71
13.8306 -70
13.8333 -67
13.8361 -66
13.8389 -66
13.8417 -66
13.8444 -66
13.8472 -61
13.85 -57
13.8528 -55
13.8556 -56
13.8583 -57
13.8611 -58
13.8639 -55
13.8667 -52
13.8694 -49
13.8722 -48
13.875 -48
13.8778 -48
13.8806 -47
13.8833 -45
13.8861 -44
13.8889 -46
13.8917 -48
13.8944 -51
13.8972 -51
13.9 -48
13.9028 -48
13.9056 -50
13.9083 -54
13.9111 -54
13.9139 -48
13.9167 -46
13.9194 -45
13.9222 -53
13.925 -59
13.9278 -61
13.9306 -65
13.9333 -63
13.9361 -65
13.9389 -66
13.9417 -69
13.9444 -72
13.9472 -73
13.95 -71
13.9528 -69
13.9556 -68
13.9583 -67
13.9611 -72
13.9639 -71
13.9667 -69
13.9694 -67
13.9722 -71
13.975 -70
13.9778 -75
13.9806 -75
13.9833 -73
13.9861 -73
13.9889 -70
13.9917 -74
13.9944 -76
13.9972 -73
14 -74
14.0028 -71
14.0056 -74
14.0083 -76
14.0111 -77
14.0139 -77
14.0167 -80
14.0194 -86
14.0222 -93
14.025 -97
14.0278 -104
14.0306 -111
14.0333 -105
14.0361 -87
14.0389 -61
14.0417 -31
14.0444 2
14.0472 52
14.05 107
14.0528 152
14.0556 178
14.0583 181
14.0611 141
14.0639 72
14.0667 -6
14.0694 -64
14.0722 -91
14.075 -95
14.0778 -88
14.0806 -79
14.0833 -76
14.0861 -76
14.0889 -77
14.0917 -79
14.0944 -80
14.0972 -81
14.1 -79
14.1028 -82
14.1056 -78
14.1083 -79
14.1111 -81
14.1139 -81
14.1167 -79
14.1194 -77
14.1222 -77
14.125 -81
14.1278 -81
14.1306 -80
14.1333 -77
14.1361 -76
14.1389 -77
14.1417 -81
14.1444 -82
14.1472 -80
14.15 -79
14.1528 -77
14.1556 -79
14.1583 -82
14.1611 -81
14.1639 -81
14.1667 -79
14.1694 -78
14.1722 -79
14.175 -79
14.1778 -81
14.1806 -82
14.1833 -80
14.1861 -77
14.1889 -79
14.1917 -80
14.1944 -79
14.1972 -77
14.2 -77
14.2028 -75
14.2056 -75
14.2083 -76
14.2111 -79
14.2139 -77
14.2167 -78
14.2194 -77
14.2222 -76
14.225 -78
14.2278 -80
14.2306 -80
14.2333 -78
14.2361 -73
14.2389 -75
14.2417 -77
14.2444 -80
14.2472 -80
14.25 -78
14.2528 -76
14.2556 -75
14.2583 -77
14.2611 -79
14.2639 -76
14.2667 -74
14.2694 -73
14.2722 -73
14.275 -75
14.2778 -77
14.2806 -75
14.2833 -75
14.2861 -73
14.2889 -74
14.2917 -75
14.2944 -80
14.2972 -79
14.3 -81
14.3028 -74
14.3056 -77
14.3083 -80
14.3111 -82
14.3139 -80
14.3167 -79
14.3194 -75
14.3222 -76
14.325 -77
14.3278 -81
14.3306 -77
14.3333 -75
14.3361 -74
14.3389 -73
14.3417 -73
14.3444 -70
14.3472 -71
14.35 -64
14.3528 -62
14.3556 -62
14.3583 -61
14.3611 -62
14.3639 -58
14.3667 -56
14.3694 -56
14.3722 -54
14.375 -56
14.3778 -57
14.3806 -56
14.3833 -57
14.3861 -53
14.3889 -54
14.3917 -55
14.3944 -58
14.3972 -58
14.4 -55
14.4028 -55
14.4056 -54
14.4083 -55
14.4111 -58
14.4139 -57
14.4167 -57
14.4194 -52
14.4222 -52
14.425 -55
14.4278 -57
14.4306 -55
14.4333 -53
14.4361 -54
14.4389 -56
14.4417 -58
14.4444 -59
14.4472 -60
14.45 -56
14.4528 -56
14.4556 -55
14.4583 -58
14.4611 -60
14.4639 -61
14.4667 -57
14.4694 -57
14.4722 -57
14.475 -59
14.4778 -60
14.4806 -60
14.4833 -59
14.4861 -56
14.4889 -59
14.4917 -58
14.4944 -61
14.4972 -61
14.5 -60
14.5028 -57
14.5056 -57
14.5083 -62
14.5111 -63
14.5139 -61
14.5167 -61
14.5194 -59
14.5222 -60
14.525 -64
14.5278 -67
14.5306 -64
14.5333 -64
14.5361 -62
14.5389 -63
14.5417 -62
14.5444 -66
14.5472 -64
14.55 -62
14.5528 -61
14.5556 -61
14.5583 -63
14.5611 -63
14.5639 -63
14.5667 -61
14.5694 -61
14.5722 -60
14.575 -62
14.5778 -62
14.5806 -62
14.5833 -62
14.5861 -59
14.5889 -60
14.5917 -65
14.5944 -65
14.5972 -66
14.6 -64
14.6028 -62
14.6056 -61
14.6083 -63
14.6111 -66
14.6139 -64
14.6167 -62
14.6194 -61
14.6222 -60
14.625 -59
14.6278 -64
14.6306 -62
14.6333 -60
14.6361 -55
14.6389 -54
14.6417 -52
14.6444 -50
14.6472 -47
14.65 -46
14.6528 -45
14.6556 -46
14.6583 -46
14.6611 -48
14.6639 -46
14.6667 -45
14.6694 -41
14.6722 -41
14.675 -40
14.6778 -42
14.6806 -39
14.6833 -40
14.6861 -38
14.6889 -40
14.6917 -42
14.6944 -45
14.6972 -45
14.7 -44
14.7028 -44
14.7056 -44
14.7083 -46
14.7111 -50
14.7139 -49
14.7167 -46
14.7194 -41
14.7222 -37
14.725 -39
14.7278 -45
14.7306 -50
14.7333 -51
14.7361 -53
14.7389 -55
14.7417 -61
14.7444 -64
14.7472 -65
14.75 -65
14.7528 -66
14.7556 -66
14.7583 -65
14.7611 -67
14.7639 -68
14.7667 -67
14.7694 -64
14.7722 -67
14.775 -69
14.7778 -71
14.7806 -70
14.7833 -71
14.7861 -70
14.7889 -69
14.7917 -68
14.7944 -71
14.7972 -70
14.8 -68
14.8028 -68
14.8056 -68
14.8083 -71
14.8111 -80
14.8139 -87
14.8167 -91
14.8194 -94
14.8222 -100
14.825 -108
14.8278 -109
14.8306 -93
14.8333 -71
14.8361 -42
14.8389 -7
14.8417 37
14.8444 87
14.8472 135
14.85 164
14.8528 165
14.8556 128
14.8583 64
14.8611 -14
14.8639 -68
14.8667 -89
14.8694 -89
14.8722 -82
14.875 -76
14.8778 -75
14.8806 -75
14.8833 -74
14.8861 -73
14.8889 -72
14.8917 -74
14.8944 -75
14.8972 -74
14.9 -72
14.9028 -70
14.9056 -71
14.9083 -73
14.9111 -76
14.9139 -76
14.9167 -74
14.9194 -73
14.9222 -73
14.925 -76
14.9278 -77
14.9306 -78
14.9333 -76
14.9361 -75
14.9389 -75
14.9417 -76
14.9444 -78
14.9472 -76
14.95 -75
14.9528 -74
14.9556 -73
14.9583 -75
14.9611 -77
14.9639 -73
14.9667 -72
14.9694 -70
14.9722 -71
14.975 -71
14.9778 -74
14.9806 -73
14.9833 -70
14.9861 -72
14.9889 -73
14.9917 -73
14.9944 -75
14.9972 -75
15 -71
15.0028 -71
15.0056 -74
15.0083 -75
15.0111 -76
15.0139 -77
15.0167 -74
15.0194 -74
15.0222 -72
15.025 -74
15.0278 -75
15.0306 -73
15.0333 -71
15.0361 -69
15.0389 -72
15.0417 -71
15.0444 -73
15.0472 -72
15.05 -69
15.0528 -67
15.0556 -67
15.0583 -71
15.0611 -71
15.0639 -70
15.0667 -68
15.0694 -70
15.0722 -70
15.075 -71
15.0778 -73
15.0806 -72
15.0833 -73
15.0861 -73
15.0889 -73
15.0917 -74
15.0944 -75
15.0972 -76
15.1 -73
15.1028 -70
15.1056 -72
15.1083 -73
15.1111 -76
15.1139 -75
15.1167 -74
15.1194 -72
15.1222 -73
15.125 -75
15.1278 -76
15.1306 -75
15.1333 -72
15.1361 -71
15.1389 -71
15.1417 -71
15.1444 -70
15.1472 -70
15.15 -68
15.1528 -66
15.1556 -65
15.1583 -67
15.1611 -67
15.1639 -66
15.1667 -62
15.1694 -60
15.1722 -59
15.175 -61
15.1778 -62
15.1806 -57
15.1833 -57
15.1861 -53
15.1889 -54
15.1917 -57
15.1944 -58
15.1972 -55
15.2 -54
15.2028 -51
15.2056 -53
15.2083 -53
15.2111 -55
15.2139 -54
15.2167 -52
15.2194 -50
15.2222 -52
15.225 -54
15.2278 -56
15.2306 -58
15.2333 -58
15.2361 -56
15.2389 -56
15.2417 -58
15.2444 -61
15.2472 -60
15.25 -60
15.2528 -59
15.2556 -60
15.2583 -58
15.2611 -60
15.2639 -62
15.2667 -62
15.2694 -59
15.2722 -59
15.275 -60
15.2778 -64
15.2806 -63
15.2833 -63
15.2861 -60
15.2889 -62
15.2917 -61
15.2944 -63
15.2972 -61
15.3 -61
15.3028 -61
15.3056 -60
15.3083 -61
15.3111 -62
15.3139 -63
15.3167 -63
15.3194 -63
15.3222 -64
15.325 -67
15.3278 -69
15.3306 -67
15.3333 -62
15.3361 -65
15.3389 -64
15.3417 -66
15.3444 -65
15.3472 -65
15.35 -64
15.3528 -64
15.3556 -63
15.3583 -65
15.3611 -69
15.3639 -67
15.3667 -65
15.3694 -65
15.3722 -66
15.375 -67
15.3778 -68
15.3806 -67
15.3833 -65
15.3861 -64
15.3889 -63
15.3917 -67
15.3944 -69
15.3972 -67
15.4 -65
15.4028 -65
15.4056 -64
15.4083 -65
15.4111 -67
15.4139 -64
15.4167 -64
15.4194 -62
15.4222 -62
15.425 -64
15.4278 -66
15.4306 -68
15.4333 -65
15.4361 -61
15.4389 -61
15.4417 -58
15.4444 -58
15.4472 -54
15.45 -53
15.4528 -53
15.4556 -52
15.4583 -52
15.4611 -54
15.4639 -55
15.4667 -52
15.4694 -49
15.4722 -47
15.475 -46
15.4778 -49
15.4806 -48
15.4833 -46
15.4861 -48
15.4889 -45
15.4917 -48
15.4944 -49
15.4972 -48
15.5 -44
15.5028 -44
15.5056 -46
15.5083 -49
15.5111 -51
15.5139 -48
15.5167 -43
15.5194 -45
15.5222 -51
15.525 -57
15.5278 -62
15.5306 -62
15.5333 -66
15.5361 -67
15.5389 -70
15.5417 -70
15.5444 -72
15.5472 -71
15.55 -68
15.5528 -68
15.5556 -67
15.5583 -70
15.5611 -72
15.5639 -72
15.5667 -69
15.5694 -69
15.5722 -70
15.575 -70
15.5778 -72
15.5806 -70
15.5833 -70
15.5861 -69
15.5889 -71
15.5917 -71
15.5944 -74
15.5972 -75
15.6 -78
15.6028 -85
15.6056 -91
15.6083 -95
15.6111 -100
15.6139 -108
15.6167 -114
15.6194 -102
15.6222 -83
15.625 -67
15.6278 -52
15.6306 -30
15.6333 -1
15.6361 41
15.6389 94
15.6417 136
15.6444 165
15.6472 185
15.65 194
15.6528 177
15.6556 138
15.6583 83
15.6611 21
15.6639 -30
15.6667 -69
15.6694 -87
15.6722 -93
15.675 -91
15.6778 -85
15.6806 -83
15.6833 -79
15.6861 -75
15.6889 -74
15.6917 -79
15.6944 -80
15.6972 -80
15.7 -82
15.7028 -80
15.7056 -81
15.7083 -80
15.7111 -81
15.7139 -79
15.7167 -78
15.7194 -76
15.7222 -77
15.725 -81
15.7278 -84
15.7306 -81
15.7333 -80
15.7361 -78
15.7389 -76
15.7417 -79
15.7444 -79
15.7472 -80
15.75 -78
15.7528 -82
15.7556 -81
15.7583 -82
15.7611 -82
15.7639 -79
15.7667 -77
15.7694 -79
15.7722 -81
15.775 -84
15.7778 -87
15.7806 -83
15.7833 -81
15.7861 -82
15.7889 -80
15.7917 -82
15.7944 -83
15.7972 -82
15.8 -80
15.8028 -81
15.8056 -78
15.8083 -78
15.8111 -80
15.8139 -78
15.8167 -78
15.8194 -78
15.8222 -79
15.825 -84
15.8278 -84
15.8306 -83
15.8333 -82
15.8361 -79
15.8389 -79
15.8417 -80
15.8444 -83
15.8472 -83
15.85 -80
15.8528 -80
15.8556 -77
15.8583 -78
15.8611 -82
15.8639 -79
15.8667 -78
15.8694 -76
15.8722 -75
15.875 -78
15.8778 -81
15.8806 -84
15.8833 -83
15.8861 -83
15.8889 -83
15.8917 -87
15.8944 -93
15.8972 -91
15.9 -93
15.9028 -92
15.9056 -89
15.9083 -91
15.9111 -93
15.9139 -95
15.9167 -91
15.9194 -92
15.9222 -90
15.925 -91
15.9278 -94
15.9306 -91
15.9333 -88
15.9361 -84
15.9389 -83
15.9417 -84
15.9444 -82
15.9472 -82
15.95 -74
15.9528 -72
15.9556 -70
15.9583 -70
15.9611 -69
15.9639 -67
15.9667 -64
15.9694 -60
15.9722 -64
15.975 -63
15.9778 -68
15.9806 -65
15.9833 -60
15.9861 -60
15.9889 -60
15.9917 -62
15.9944 -66
15.9972 -62
16 -61
16.0028 -60
16.0056 -61
16.0083 -63
16.0111 -66
16.0139 -62
16.0167 -61
16.0194 -62
16.0222 -61
16.025 -62
16.0278 -62
16.0306 -62
16.0333 -60
16.0361 -61
16.0389 -62
16.0417 -62
16.0444 -64
16.0472 -63
16.05 -66
16.0528 -63
16.0556 -64
16.0583 -68
16.0611 -68
16.0639 -67
16.0667 -66
16.0694 -64
16.0722 -64
16.075 -65
16.0778 -70
16.0806 -68
16.0833 -67
16.0861 -67
16.0889 -69
16.0917 -70
16.0944 -72
16.0972 -72
16.1 -69
16.1028 -67
16.1056 -67
16.1083 -67
16.1111 -69
16.1139 -67
16.1167 -67
16.1194 -66
16.1222 -67
16.125 -67
16.1278 -70
16.1306 -69
16.1333 -71
16.1361 -69
16.1389 -69
16.1417 -71
16.1444 -73
16.1472 -72
16.15 -71
16.1528 -69
16.1556 -69
16.1583 -69
16.1611 -72
16.1639 -69
16.1667 -68
16.1694 -67
16.1722 -68
16.175 -69
16.1778 -74
16.1806 -74
16.1833 -72
16.1861 -68
16.1889 -70
16.1917 -73
16.1944 -71
16.1972 -70
16.2 -68
16.2028 -68
16.2056 -71
16.2083 -71
16.2111 -70
16.2139 -70
16.2167 -67
16.2194 -68
16.2222 -68
16.225 -66
16.2278 -70
16.2306 -63
16.2333 -60
16.2361 -58
16.2389 -55
16.2417 -56
16.2444 -57
16.2472 -55
16.25 -54
16.2528 -51
16.2556 -48
16.2583 -50
16.2611 -51
16.2639 -48
16.2667 -45
16.2694 -45
16.2722 -48
16.275 -51
16.2778 -52
16.2806 -55
16.2833 -52
16.2861 -49
16.2889 -51
16.2917 -53
16.2944 -56
16.2972 -54
16.3 -50
16.3028 -47
16.3056 -46
16.3083 -49
16.3111 -54
16.3139 -56
16.3167 -56
16.3194 -58
16.3222 -63
16.325 -67
16.3278 -71
16.3306 -71
16.3333 -71
16.3361 -72
16.3389 -72
16.3417 -75
16.3444 -76
16.3472 -72
16.35 -71
16.3528 -70
16.3556 -69
16.3583 -74
16.3611 -74
16.3639 -71
16.3667 -71
16.3694 -70
16.3722 -69
16.375 -71
16.3778 -71
16.3806 -72
16.3833 -71
16.3861 -71
16.3889 -71
16.3917 -72
16.3944 -75
16.3972 -74
16.4 -78
16.4028 -85
16.4056 -93
16.4083 -98
16.4111 -105
16.4139 -112
16.4167 -112
16.4194 -99
16.4222 -72
16.425 -44
16.4278 -9
16.4306 38
16.4333 95
16.4361 145
16.4389 179
16.4417 179
16.4444 142
16.4472 70
16.45 -11
16.4528 -70
16.4556 -96
16.4583 -98
16.4611 -93
16.4639 -83
16.4667 -81
16.4694 -79
16.4722 -81
16.475 -84
16.4778 -79
16.4806 -83
16.4833 -80
16.4861 -78
16.4889 -77
16.4917 -79
16.4944 -81
16.4972 -79
16.5 -80
16.5028 -78
16.5056 -78
16.5083 -80
16.5111 -83
16.5139 -81
16.5167 -78
16.5194 -76
16.5222 -76
16.525 -81
16.5278 -78
16.5306 -80
16.5333 -78
16.5361 -76
16.5389 -76
16.5417 -81
16.5444 -80
16.5472 -82
16.55 -80
16.5528 -79
16.5556 -80
16.5583 -80
16.5611 -81
16.5639 -78
16.5667 -76
16.5694 -77
16.5722 -77
16.575 -78
16.5778 -81
16.5806 -80
16.5833 -80
16.5861 -78
16.5889 -78
16.5917 -82
16.5944 -82
16.5972 -81
16.6 -80
16.6028 -82
16.6056 -81
16.6083 -82
16.6111 -83
16.6139 -82
16.6167 -81
16.6194 -79
16.6222 -81
16.625 -80
16.6278 -80
16.6306 -79
16.6333 -81
16.6361 -76
16.6389 -77
16.6417 -78
16.6444 -82
16.6472 -79
16.65 -78
16.6528 -76
16.6556 -77
16.6583 -81
16.6611 -81
16.6639 -81
16.6667 -80
16.6694 -82
16.6722 -82
16.675 -83
16.6778 -87
16.6806 -86
16.6833 -83
16.6861 -84
16.6889 -84
16.6917 -88
16.6944 -88
16.6972 -87
16.7 -87
16.7028 -87
16.7056 -86
16.7083 -89
16.7111 -89
16.7139 -84
16.7167 -85
16.7194 -82
16.7222 -81
16.725 -80
16.7278 -82
16.7306 -76
16.7333 -74
16.7361 -70
16.7389 -68
16.7417 -71
16.7444 -69
16.7472 -68
16.75 -63
16.7528 -64
16.7556 -60
16.7583 -60
16.7611 -63
16.7639 -61
16.7667 -60
16.7694 -56
16.7722 -58
16.775 -58
16.7778 -60
16.7806 -59
16.7833 -59
16.7861 -56
16.7889 -57
16.7917 -58
16.7944 -59
16.7972 -57
16.8 -56
16.8028 -55
16.8056 -53
16.8083 -56
16.8111 -59
16.8139 -56
16.8167 -56
16.8194 -55
16.8222 -58
16.825 -59
16.8278 -62
16.8306 -58
16.8333 -58
16.8361 -55
16.8389 -54
16.8417 -59
16.8444 -63
16.8472 -62
16.85 -60
16.8528 -59
16.8556 -58
16.8583 -60
16.8611 -63
16.8639 -61
16.8667 -60
16.8694 -58
16.8722 -62
16.875 -63
16.8778 -66
16.8806 -62
16.8833 -61
16.8861 -59
16.8889 -59
16.8917 -61
16.8944 -65
16.8972 -63
16.9 -63
16.9028 -62
16.9056 -60
16.9083 -63
16.9111 -67
16.9139 -65
16.9167 -65
16.9194 -63
16.9222 -62
16.925 -64
16.9278 -67
16.9306 -65
16.9333 -62
16.9361 -61
16.9389 -61
16.9417 -64
16.9444 -65
16.9472 -63
16.95 -62
16.9528 -60
16.9556 -63
16.9583 -65
16.9611 -64
16.9639 -64
16.9667 -64
16.9694 -62
16.9722 -62
16.975 -62
16.9778 -63
16.9806 -61
16.9833 -57
16.9861 -59
16.9889 -61
16.9917 -62
16.9944 -63
16.9972 -60
17 -63
17.0028 -61
17.0056 -61
17.0083 -65
17.0111 -65
17.0139 -63
17.0167 -60
17.0194 -59
17.0222 -62
17.025 -63
17.0278 -64
17.0306 -63
17.0333 -62
17.0361 -59
17.0389 -57
17.0417 -54
17.0444 -50
17.0472 -49
17.05 -46
17.0528 -44
17.0556 -45
17.0583 -47
17.0611 -46
17.0639 -44
17.0667 -41
17.0694 -38
17.0722 -38
17.075 -38
17.0778 -41
17.0806 -41
17.0833 -41
17.0861 -42
17.0889 -43
17.0917 -45
17.0944 -46
17.0972 -45
17.1 -44
17.1028 -44
17.1056 -48
17.1083 -48
17.1111 -46
17.1139 -41
17.1167 -39
17.1194 -39
17.1222 -44
17.125 -49
17.1278 -55
17.1306 -52
17.1333 -55
17.1361 -57
17.1389 -60
17.1417 -60
17.1444 -62
17.1472 -62
17.15 -64
17.1528 -64
17.1556 -65
17.1583 -67
17.1611 -69
17.1639 -67
17.1667 -67
17.1694 -66
17.1722 -67
17.175 -69
17.1778 -72
17.1806 -69
17.1833 -67
17.1861 -69
17.1889 -69
17.1917 -71
17.1944 -72
17.1972 -71
17.2 -68
17.2028 -68
17.2056 -70
17.2083 -70
17.2111 -71
17.2139 -71
17.2167 -71
17.2194 -74
17.2222 -85
17.225 -93
17.2278 -96
17.2306 -100
17.2333 -106
17.2361 -107
17.2389 -97
17.2417 -79
17.2444 -51
17.2472 -19
17.25 19
17.2528 70
17.2556 126
17.2583 169
17.2611 191
17.2639 195
17.2667 165
17.2694 96
17.2722 11
17.275 -54
17.2778 -91
17.2806 -97
17.2833 -88
17.2861 -81
17.2889 -75
17.2917 -75
17.2944 -78
17.2972 -76
17.3 -72
17.3028 -71
17.3056 -69
17.3083 -73
17.3111 -75
17.3139 -74
17.3167 -74
17.3194 -71
17.3222 -74
17.325 -75
17.3278 -76
17.3306 -77
17.3333 -76
17.3361 -76
17.3389 -76
17.3417 -77
17.3444 -79
17.3472 -79
17.35 -78
17.3528 -77
17.3556 -76
17.3583 -76
17.3611 -79
17.3639 -78
17.3667 -76
17.3694 -74
17.3722 -75
17.375 -77
17.3778 -76
17.3806 -75
17.3833 -73
17.3861 -72
17.3889 -73
17.3917 -73
17.3944 -77
17.3972 -74
17.4 -73
17.4028 -71
17.4056 -77
17.4083 -79
17.4111 -79
17.4139 -77
17.4167 -74
17.4194 -76
17.4222 -74
17.425 -75
17.4278 -78
17.4306 -77
17.4333 -76
17.4361 -74
17.4389 -74
17.4417 -77
17.4444 -77
17.4472 -76
17.45 -77
17.4528 -74
17.4556 -75
17.4583 -75
17.4611 -76
17.4639 -76
17.4667 -71
17.4694 -72
17.4722 -73
17.475 -74
17.4778 -76
17.4806 -74
17.4833 -75
17.4861 -72
17.4889 -74
17.4917 -76
17.4944 -77
17.4972 -75
17.5 -75
17.5028 -74
17.5056 -74
17.5083 -77
17.5111 -80
17.5139 -79
17.5167 -77
17.5194 -79
17.5222 -76
17.525 -80
17.5278 -80
17.5306 -80
17.5333 -78
17.5361 -78
17.5389 -77
17.5417 -80
17.5444 -80
17.5472 -77
17.55 -76
17.5528 -76
17.5556 -77
17.5583 -77
17.5611 -81
17.5639 -79
17.5667 -76
17.5694 -74
17.5722 -74
17.575 -76
17.5778 -73
17.5806 -71
17.5833 -67
17.5861 -65
17.5889 -64
17.5917 -64
17.5944 -66
17.5972 -63
17.6 -60
17.6028 -59
17.6056 -57
17.6083 -59
17.6111 -58
17.6139 -57
17.6167 -54
17.6194 -52
17.6222 -53
17.625 -55
17.6278 -56
17.6306 -55
17.6333 -54
17.6361 -54
17.6389 -52
17.6417 -54
17.6444 -56
17.6472 -57
17.65 -55
17.6528 -53
17.6556 -54
17.6583 -57
17.6611 -57
17.6639 -57
17.6667 -55
17.6694 -56
17.6722 -55
17.675 -57
17.6778 -59
17.6806 -59
17.6833 -57
17.6861 -56
17.6889 -54
17.6917 -57
17.6944 -55
17.6972 -58
17.7 -57
17.7028 -56
17.7056 -58
17.7083 -60
17.7111 -62
17.7139 -62
17.7167 -62
17.7194 -60
17.7222 -60
17.725 -63
17.7278 -65
17.7306 -63
17.7333 -61
17.7361 -62
17.7389 -62
17.7417 -63
17.7444 -66
17.7472 -65
17.75 -64
17.7528 -64
17.7556 -63
17.7583 -65
17.7611 -66
17.7639 -67
17.7667 -65
17.7694 -64
17.7722 -64
17.775 -63
17.7778 -64
17.7806 -62
17.7833 -62
17.7861 -60
17.7889 -61
17.7917 -64
17.7944 -68
17.7972 -67
17.8 -66
17.8028 -64
17.8056 -66
17.8083 -66
17.8111 -67
17.8139 -68
17.8167 -67
17.8194 -65
17.8222 -68
17.825 -69
17.8278 -68
17.8306 -68
17.8333 -65
17.8361 -68
17.8389 -67
17.8417 -68
17.8444 -70
17.8472 -68
17.85 -66
17.8528 -66
17.8556 -65
17.8583 -67
17.8611 -68
17.8639 -67
17.8667 -63
17.8694 -63
17.8722 -62
17.875 -64
17.8778 -66
17.8806 -64
17.8833 -61
17.8861 -62
17.8889 -61
17.8917 -59
17.8944 -64
17.8972 -61
17.9 -58
17.9028 -57
17.9056 -57
17.9083 -57
17.9111 -57
17.9139 -53
17.9167 -50
17.9194 -50
17.9222 -50
17.925 -50
17.9278 -50
17.9306 -50
17.9333 -46
17.9361 -43
17.9389 -45
17.9417 -45
17.9444 -46
17.9472 -46
17.95 -45
17.9528 -43
17.9556 -43
17.9583 -46
17.9611 -50
17.9639 -48
17.9667 -46
17.9694 -46
17.9722 -48
17.975 -50
17.9778 -51
17.9806 -44
17.9833 -40
17.9861 -40
17.9889 -45
17.9917 -53
17.9944 -58
17.9972 -58
18 -60
18.0028 -62
18.0056 -65
18.0083 -67
18.0111 -68
18.0139 -70
18.0167 -68
18.0194 -68
18.0222 -69
18.025 -66
18.0278 -70
18.0306 -69
18.0333 -69
18.0361 -68
18.0389 -70
18.0417 -71
18.0444 -71
18.0472 -71
18.05 -69
18.0528 -68
18.0556 -68
18.0583 -71
18.0611 -72
18.0639 -72
18.0667 -71
18.0694 -69
18.0722 -69
18.075 -72
18.0778 -74
18.0806 -75
18.0833 -74
18.0861 -76
18.0889 -84
18.0917 -93
18.0944 -97
18.0972 -103
18.1 -109
18.1028 -115
18.1056 -109
18.1083 -90
18.1111 -65
18.1139 -39
18.1167 -9
18.1194 33
18.1222 85
18.125 131
18.1278 162
18.1306 175
18.1333 163
18.1361 118
18.1389 44
18.1417 -30
18.1444 -76
18.1472 -94
18.15 -93
18.1528 -85
18.1556 -77
18.1583 -75
18.1611 -79
18.1639 -77
18.1667 -75
18.1694 -71
18.1722 -74
18.175 -72
18.1778 -73
18.1806 -74
18.1833 -74
18.1861 -72
18.1889 -73
18.1917 -75
18.1944 -76
18.1972 -74
18.2 -74
18.2028 -74
18.2056 -76
18.2083 -77
18.2111 -79
18.2139 -78
18.2167 -76
18.2194 -75
18.2222 -75
18.225 -79
18.2278 -80
18.2306 -79
18.2333 -74
18.2361 -74
18.2389 -74
18.2417 -73
18.2444 -78
18.2472 -77
18.25 -75
18.2528 -72
18.2556 -76
18.2583 -78
18.2611 -78
18.2639 -77
18.2667 -75
18.2694 -75
18.2722 -75
18.275 -76
18.2778 -78
18.2806 -76
18.2833 -73
18.2861 -76
18.2889 -76
18.2917 -77
18.2944 -78
18.2972 -78
18.3 -76
18.3028 -76
18.3056 -77
18.3083 -79
18.3111 -80
18.3139 -77
18.3167 -76
18.3194 -72
18.3222 -74
18.325 -75
18.3278 -74
18.3306 -77
18.3333 -74
18.3361 -73
18.3389 -72
18.3417 -73
18.3444 -75
18.3472 -76
18.35 -73
18.3528 -74
18.3556 -72
18.3583 -74
18.3611 -79
18.3639 -77
18.3667 -77
18.3694 -78
18.3722 -78
18.375 -78
18.3778 -82
18.3806 -78
18.3833 -76
18.3861 -78
18.3889 -76
18.3917 -79
18.3944 -81
18.3972 -81
18.4 -79
18.4028 -78
18.4056 -78
18.4083 -82
18.4111 -83
18.4139 -78
18.4167 -76
18.4194 -78
18.4222 -77
18.425 -78
18.4278 -78
18.4306 -76
18.4333 -72
18.4361 -71
18.4389 -69
18.4417 -68
18.4444 -69
18.4472 -66
18.45 -64
18.4528 -63
18.4556 -60
18.4583 -61
18.4611 -64
18.4639 -60
18.4667 -55
18.4694 -55
18.4722 -55
18.475 -55
18.4778 -56
18.4806 -57
18.4833 -55
18.4861 -55
18.4889 -56
18.4917 -59
18.4944 -61
18.4972 -61
18.5 -60
18.5028 -58
18.5056 -57
18.5083 -59
18.5111 -62
18.5139 -60
18.5167 -60
18.5194 -59
18.5222 -60
18.525 -61
18.5278 -62
18.5306 -63
18.5333 -61
18.5361 -62
18.5389 -62
18.5417 -63
18.5444 -64
18.5472 -61
18.55 -58
18.5528 -57
18.5556 -59
18.5583 -60
18.5611 -63
18.5639 -62
18.5667 -63
18.5694 -64
18.5722 -64
18.575 -66
18.5778 -68
18.5806 -64
18.5833 -62
18.5861 -64
18.5889 -64
18.5917 -66
18.5944 -69
18.5972 -68
18.6 -66
18.6028 -66
18.6056 -64
18.6083 -66
18.6111 -65
18.6139 -65
18.6167 -64
18.6194 -63
18.6222 -64
18.625 -66
18.6278 -69
18.6306 -64
18.6333 -63
18.6361 -63
18.6389 -64
18.6417 -65
18.6444 -67
18.6472 -68
18.65 -66
18.6528 -65
18.6556 -63
18.6583 -67
18.6611 -69
18.6639 -68
18.6667 -65
18.6694 -64
18.6722 -66
18.675 -69
18.6778 -68
18.6806 -66
18.6833 -68
18.6861 -65
18.6889 -63
18.6917 -62
18.6944 -65
18.6972 -63
18.7 -66
18.7028 -63
18.7056 -64
18.7083 -65
18.7111 -66
18.7139 -66
18.7167 -63
18.7194 -62
18.7222 -61
18.725 -62
18.7278 -62
18.7306 -60
18.7333 -57
18.7361 -55
18.7389 -54
18.7417 -54
18.7444 -56
18.7472 -53
18.75 -51
18.7528 -50
18.7556 -49
18.7583 -50
18.7611 -49
18.7639 -45
18.7667 -43
18.7694 -44
18.7722 -44
18.775 -46
18.7778 -47
18.7806 -48
18.7833 -48
18.7861 -46
18.7889 -45
18.7917 -48
18.7944 -54
18.7972 -50
18.8 -51
18.8028 -47
18.8056 -45
18.8083 -43
18.8111 -48
18.8139 -52
18.8167 -55
18.8194 -57
18.8222 -63
18.825 -64
18.8278 -69
18.8306 -70
18.8333 -70
18.8361 -72
18.8389 -73
18.8417 -71
18.8444 -72
18.8472 -72
18.85 -72
18.8528 -70
18.8556 -69
18.8583 -71
18.8611 -75
18.8639 -73
18.8667 -70
18.8694 -69
18.8722 -68
18.875 -67
18.8778 -71
18.8806 -73
18.8833 -70
18.8861 -69
18.8889 -69
18.8917 -71
18.8944 -74
18.8972 -74
18.9 -73
18.9028 -72
18.9056 -77
18.9083 -83
18.9111 -91
18.9139 -93
18.9167 -92
18.9194 -95
18.9222 -99
18.925 -111
18.9278 -117
18.9306 -110
18.9333 -92
18.9361 -69
18.9389 -41
18.9417 -8
18.9444 38
18.9472 91
18.95 136
18.9528 168
18.9556 176
18.9583 145
18.9611 80
18.9639 0
18.9667 -56
18.9694 -87
18.9722 -102
18.975 -97
18.9778 -92
18.9806 -86
18.9833 -81
18.9861 -82
18.9889 -82
18.9917 -83
18.9944 -81
18.9972 -83
19 -79
19.0028 -78
19.0056 -79
19.0083 -81
19.0111 -82
19.0139 -82
19.0167 -79
19.0194 -78
19.0222 -80
19.025 -80
19.0278 -79
19.0306 -80
19.0333 -77
19.0361 -77
19.0389 -79
19.0417 -82
19.0444 -84
19.0472 -82
19.05 -80
19.0528 -78
19.0556 -82
19.0583 -83
19.0611 -85
19.0639 -85
19.0667 -81
19.0694 -80
19.0722 -85
19.075 -83
19.0778 -83
19.0806 -82
19.0833 -81
19.0861 -80
19.0889 -82
19.0917 -81
19.0944 -83
19.0972 -82
19.1 -80
19.1028 -79
19.1056 -80
19.1083 -81
19.1111 -81
19.1139 -83
19.1167 -81
19.1194 -80
19.1222 -81
19.125 -82
19.1278 -84
19.1306 -83
19.1333 -80
19.1361 -79
19.1389 -80
19.1417 -83
19.1444 -84
19.1472 -82
19.15 -80
19.1528 -79
19.1556 -80
19.1583 -83
19.1611 -82
19.1639 -83
19.1667 -83
19.1694 -81
19.1722 -82
19.175 -84
19.1778 -88
19.1806 -86
19.1833 -86
19.1861 -85
19.1889 -87
19.1917 -87
19.1944 -88
19.1972 -90
19.2 -90
19.2028 -90
19.2056 -93
19.2083 -94
19.2111 -97
19.2139 -93
19.2167 -91
19.2194 -90
19.2222 -90
19.225 -94
19.2278 -97
19.2306 -92
19.2333 -89
19.2361 -87
19.2389 -85
19.2417 -86
19.2444 -86
19.2472 -83
19.25 -77
19.2528 -73
19.2556 -75
19.2583 -72
19.2611 -72
19.2639 -70
19.2667 -67
19.2694 -67
19.2722 -65
19.275 -67
19.2778 -67
19.2806 -67
19.2833 -62
19.2861 -62
19.2889 -63
19.2917 -63
19.2944 -64
19.2972 -63
19.3 -59
19.3028 -59
19.3056 -60
19.3083 -61
19.3111 -66
19.3139 -65
19.3167 -63
19.3194 -65
19.3222 -64
19.325 -66
19.3278 -67
19.3306 -67
19.3333 -66
19.3361 -61
19.3389 -65
19.3417 -65
19.3444 -65
19.3472 -65
19.35 -62
19.3528 -61
19.3556 -63
19.3583 -65
19.3611 -66
19.3639 -65
19.3667 -65
19.3694 -68
19.3722 -68
19.375 -68
19.3778 -69
19.3806 -68
19.3833 -65
19.3861 -66
19.3889 -64
19.3917 -65
19.3944 -68
19.3972 -68
19.4 -67
19.4028 -68
19.4056 -70
19.4083 -71
19.4111 -72
19.4139 -70
19.4167 -69
19.4194 -69
19.4222 -72
19.425 -71
19.4278 -74
19.4306 -73
19.4333 -70
19.4361 -72
19.4389 -70
19.4417 -72
19.4444 -74
19.4472 -72
19.45 -71
19.4528 -69
19.4556 -69
19.4583 -70
19.4611 -70
19.4639 -69
19.4667 -67
19.4694 -66
19.4722 -68
19.475 -69
19.4778 -70
19.4806 -69
19.4833 -69
19.4861 -68
19.4889 -68
19.4917 -69
19.4944 -72
19.4972 -70
19.5 -69
19.5028 -67
19.5056 -69
19.5083 -69
19.5111 -71
19.5139 -69
19.5167 -67
19.5194 -65
19.5222 -64
19.525 -61
19.5278 -61
19.5306 -60
19.5333 -57
19.5361 -56
19.5389 -53
19.5417 -55
19.5444 -54
19.5472 -49
19.55 -48
19.5528 -46
19.5556 -47
19.5583 -46
19.5611 -49
19.5639 -49
19.5667 -48
19.5694 -50
19.5722 -51
19.575 -51
19.5778 -54
19.5806 -53
19.5833 -53
19.5861 -53
19.5889 -51
19.5917 -50
19.5944 -47
19.5972 -46
19.6 -50
19.6028 -52
19.6056 -56
19.6083 -61
19.6111 -68
19.6139 -66
19.6167 -67
19.6194 -66
19.6222 -69
19.625 -70
19.6278 -72
19.6306 -72
19.6333 -72
19.6361 -73
19.6389 -73
19.6417 -71
19.6444 -73
19.6472 -72
19.65 -72
19.6528 -72
19.6556 -71
19.6583 -75
19.6611 -75
19.6639 -73
19.6667 -72
19.6694 -74
19.6722 -72
19.675 -76
19.6778 -78
19.6806 -77
19.6833 -77
19.6861 -73
19.6889 -75
19.6917 -75
19.6944 -80
19.6972 -79
19.7 -86
19.7028 -92
19.7056 -96
19.7083 -102
19.7111 -114
19.7139 -117
19.7167 -103
19.7194 -77
19.7222 -48
19.725 -17
19.7278 25
19.7306 81
19.7333 135
19.7361 173
19.7389 187
19.7417 168
19.7444 111
19.7472 28
19.75 -40
19.7528 -81
19.7556 -97
19.7583 -97
19.7611 -90
19.7639 -77
19.7667 -77
19.7694 -77
19.7722 -78
19.775 -77
19.7778 -79
19.7806 -78
19.7833 -77
19.7861 -77
19.7889 -78
19.7917 -79
19.7944 -78
19.7972 -78
19.8 -79
19.8028 -76
19.8056 -77
19.8083 -78
19.8111 -81
19.8139 -80
19.8167 -79
19.8194 -78
19.8222 -78
19.825 -78
19.8278 -81
19.8306 -75
19.8333 -78
19.8361 -76
19.8389 -78
19.8417 -77
19.8444 -78
19.8472 -77
19.85 -74
19.8528 -73
19.8556 -73
19.8583 -76
19.8611 -78
19.8639 -78
19.8667 -77
19.8694 -75
19.8722 -76
19.875 -78
19.8778 -78
19.8806 -79
19.8833 -75
19.8861 -77
19.8889 -77
19.8917 -80
19.8944 -78
19.8972 -77
19.9 -77
19.9028 -75
19.9056 -76
19.9083 -79
19.9111 -81
19.9139 -77
19.9167 -76
19.9194 -75
19.9222 -76
19.925 -76
19.9278 -78
19.9306 -78
19.9333 -76
19.9361 -71
19.9389 -71
19.9417 -74
19.9444 -77
19.9472 -75
19.95 -77
19.9528 -75
19.9556 -78
19.9583 -78
19.9611 -80
19.9639 -80
19.9667 -77
19.9694 -78
19.9722 -78
19.975 -81
19.9778 -83
19.9806 -81
19.9833 -81
19.9861 -81
19.9889 -82
19.9917 -85
19.9944 -86
19.9972 -84
20 -81
20.0028 -82
20.0056 -82
20.0083 -82
20.0111 -82
20.0139 -80
20.0167 -77
20.0194 -74
20.0222 -75
20.025 -72
20.0278 -73
20.0306 -71
20.0333 -67
20.0361 -63
20.0389 -63
20.0417 -62
20.0444 -63
20.0472 -59
20.05 -58
20.0528 -54
20.0556 -57
20.0583 -58
20.0611 -58
20.0639 -56
20.0667 -55
20.0694 -51
20.0722 -54
20.075 -55
20.0778 -55
20.0806 -56
20.0833 -51
20.0861 -49
20.0889 -52
20.0917 -51
20.0944 -53
20.0972 -52
20.1 -52
20.1028 -48
20.1056 -50
20.1083 -52
20.1111 -55
20.1139 -53
20.1167 -52
20.1194 -52
20.1222 -57
20.125 -57
20.1278 -56
20.1306 -57
20.1333 -57
20.1361 -53
20.1389 -56
20.1417 -55
20.1444 -59
20.1472 -59
20.15 -56
20.1528 -55
20.1556 -56
20.1583 -57
20.1611 -62
20.1639 -61
20.1667 -56
20.1694 -58
20.1722 -57
20.175 -58
20.1778 -60
20.1806 -62
20.1833 -59
20.1861 -59
20.1889 -58
20.1917 -63
20.1944 -62
20.1972 -62
20.2 -63
20.2028 -61
20.2056 -62
20.2083 -64
20.2111 -65
20.2139 -62
20.2167 -61
20.2194 -62
20.2222 -61
20.225 -63
20.2278 -63
20.2306 -61
20.2333 -61
20.2361 -60
20.2389 -60
20.2417 -63
20.2444 -64
20.2472 -61
20.25 -59
20.2528 -60
20.2556 -61
20.2583 -60
20.2611 -64
20.2639 -62
20.2667 -61
20.2694 -59
20.2722 -60
20.275 -62
20.2778 -65
20.2806 -63
20.2833 -63
20.2861 -60
20.2889 -60
20.2917 -62
20.2944 -64
20.2972 -63
20.3 -61
20.3028 -60
20.3056 -60
20.3083 -60
20.3111 -60
20.3139 -57
20.3167 -52
20.3194 -49
20.3222 -48
20.325 -49
20.3278 -50
20.3306 -48
20.3333 -49
20.3361 -46
20.3389 -44
20.3417 -46
20.3444 -47
20.3472 -46
20.35 -41
20.3528 -40
20.3556 -39
20.3583 -42
20.3611 -43
20.3639 -41
20.3667 -41
20.3694 -41
20.3722 -42
20.375 -45
20.3778 -46
20.3806 -45
20.3833 -44
20.3861 -44
20.3889 -43
20.3917 -40
20.3944 -38
20.3972 -38
20.4 -41
20.4028 -45
20.4056 -50
20.4083 -54
20.4111 -60
20.4139 -61
20.4167 -64
20.4194 -64
20.4222 -65
20.425 -67
20.4278 -68
20.4306 -67
20.4333 -69
20.4361 -66
20.4389 -66
20.4417 -69
20.4444 -69
20.4472 -70
20.45 -67
20.4528 -67
20.4556 -67
20.4583 -68
20.4611 -69
20.4639 -68
20.4667 -64
20.4694 -65
20.4722 -65
20.475 -67
20.4778 -69
20.4806 -70
20.4833 -79
20.4861 -86
20.4889 -92
20.4917 -101
20.4944 -109
20.4972 -115
20.5 -112
20.5028 -91
20.5056 -66
20.5083 -47
20.5111 -26
20.5139 0
20.5167 32
20.5194 70
20.5222 109
20.525 140
20.5278 163
20.5306 186
20.5333 207
20.5361 210
20.5389 184
20.5417 114
20.5444 23
20.5472 -49
20.55 -84
20.5528 -85
20.5556 -78
20.5583 -71
20.5611 -72
20.5639 -73
20.5667 -71
20.5694 -70
20.5722 -72
20.575 -73
20.5778 -78
20.5806 -77
20.5833 -75
20.5861 -74
20.5889 -74
20.5917 -76
20.5944 -79
20.5972 -77
20.6 -75
20.6028 -73
20.6056 -74
20.6083 -77
20.6111 -80
20.6139 -77
20.6167 -77
20.6194 -74
20.6222 -75
20.625 -77
20.6278 -79
20.6306 -78
20.6333 -74
20.6361 -72
20.6389 -72
20.6417 -73
20.6444 -74
20.6472 -74
20.65 -73
20.6528 -71
20.6556 -72
20.6583 -74
20.6611 -76
20.6639 -76
20.6667 -73
20.6694 -74
20.6722 -73
20.675 -76
20.6778 -78
20.6806 -76
20.6833 -76
20.6861 -73
20.6889 -73
20.6917 -75
20.6944 -77
20.6972 -77
20.7 -75
20.7028 -72
20.7056 -71
20.7083 -74
20.7111 -75
20.7139 -74
20.7167 -74
20.7194 -71
20.7222 -73
20.725 -72
20.7278 -77
20.7306 -77
20.7333 -76
20.7361 -72
20.7389 -73
20.7417 -75
20.7444 -76
20.7472 -74
20.75 -74
20.7528 -74
20.7556 -72
20.7583 -77
20.7611 -79
20.7639 -76
20.7667 -75
20.7694 -73
20.7722 -75
20.775 -77
20.7778 -78
20.7806 -75
20.7833 -74
20.7861 -74
20.7889 -74
20.7917 -74
20.7944 -77
20.7972 -76
20.8 -77
20.8028 -74
20.8056 -74
20.8083 -74
20.8111 -76
20.8139 -74
20.8167 -69
20.8194 -68
20.8222 -65
20.825 -67
20.8278 -65
20.8306 -61
20.8333 -59
20.8361 -59
20.8389 -60
20.8417 -60
20.8444 -61
20.8472 -59
20.85 -56
20.8528 -57
20.8556 -55
20.8583 -53
20.8611 -56
20.8639 -55
20.8667 -51
20.8694 -53
20.8722 -52
20.875 -53
20.8778 -57
20.8806 -57
20.8833 -55
20.8861 -52
20.8889 -53
20.8917 -57
20.8944 -57
20.8972 -58
20.9 -55
20.9028 -55
20.9056 -53
20.9083 -55
20.9111 -61
20.9139 -58
20.9167 -57
20.9194 -57
20.9222 -55
20.925 -59
20.9278 -60
20.9306 -56
20.9333 -56
20.9361 -54
20.9389 -56
20.9417 -59
20.9444 -60
20.9472 -62
20.95 -63
20.9528 -61
20.9556 -61
20.9583 -67
20.9611 -67
20.9639 -64
20.9667 -64
20.9694 -62
20.9722 -64
20.975 -66
20.9778 -66
20.9806 -66
20.9833 -66
20.9861 -62
20.9889 -63
20.9917 -64
20.9944 -67
20.9972 -66
21 -63
21.0028 -62
21.0056 -63
21.0083 -66
21.0111 -68
21.0139 -67
21.0167 -68
21.0194 -61
21.0222 -64
21.025 -66
21.0278 -68
21.0306 -67
21.0333 -64
21.0361 -64
21.0389 -66
21.0417 -66
21.0444 -67
21.0472 -65
21.05 -63
21.0528 -64
21.0556 -63
21.0583 -64
21.0611 -62
21.0639 -62
21.0667 -62
21.0694 -61
21.0722 -60
21.075 -62
21.0778 -62
21.0806 -60
21.0833 -57
21.0861 -58
21.0889 -55
21.0917 -55
21.0944 -55
21.0972 -54
21.1 -51
21.1028 -48
21.1056 -49
21.1083 -48
21.1111 -49
21.1139 -49
21.1167 -44
21.1194 -41
21.1222 -38
21.125 -39
21.1278 -38
21.1306 -40
21.1333 -39
21.1361 -40
21.1389 -42
21.1417 -43
21.1444 -44
21.1472 -42
21.15 -42
21.1528 -40
21.1556 -42
21.1583 -44
21.1611 -43
21.1639 -44
21.1667 -47
21.1694 -45
21.1722 -45
21.175 -44
21.1778 -40
21.1806 -41
21.1833 -46
21.1861 -50
21.1889 -52
21.1917 -57
21.1944 -60
21.1972 -63
21.2 -66
21.2028 -65
21.2056 -67
21.2083 -68
21.2111 -69
21.2139 -66
21.2167 -64
21.2194 -64
21.2222 -65
21.225 -67
21.2278 -67
21.2306 -67
21.2333 -66
21.2361 -66
21.2389 -67
21.2417 -70
21.2444 -71
21.2472 -70
21.25 -69
21.2528 -68
21.2556 -70
21.2583 -72
21.2611 -78
21.2639 -80
21.2667 -87
21.2694 -93
21.2722 -96
21.275 -103
21.2778 -114
21.2806 -116
21.2833 -104
21.2861 -80
21.2889 -50
21.2917 -19
21.2944 20
21.2972 79
21.3 132
21.3028 166
21.3056 176
21.3083 152
21.3111 92
21.3139 14
21.3167 -48
21.3194 -85
21.3222 -97
21.325 -96
21.3278 -86
21.3306 -80
21.3333 -79
21.3361 -80
21.3389 -80
21.3417 -79
21.3444 -78
21.3472 -75
21.35 -73
21.3528 -74
21.3556 -77
21.3583 -79
21.3611 -81
21.3639 -78
21.3667 -78
21.3694 -77
21.3722 -76
21.375 -79
21.3778 -80
21.3806 -76
21.3833 -76
21.3861 -75
21.3889 -77
21.3917 -79
21.3944 -81
21.3972 -80
21.4 -79
21.4028 -79
21.4056 -76
21.4083 -79
21.4111 -78
21.4139 -79
21.4167 -80
21.4194 -78
21.4222 -77
21.425 -78
21.4278 -80
21.4306 -78
21.4333 -76
21.4361 -76
21.4389 -77
21.4417 -76
21.4444 -77
21.4472 -74
21.45 -75
21.4528 -74
21.4556 -74
21.4583 -75
21.4611 -77
21.4639 -77
21.4667 -75
21.4694 -77
21.4722 -76
21.475 -80
21.4778 -81
21.4806 -80
21.4833 -77
21.4861 -76
21.4889 -75
21.4917 -79
21.4944 -81
21.4972 -81
21.5 -79
21.5028 -78
21.5056 -76
21.5083 -77
21.5111 -79
21.5139 -75
21.5167 -75
21.5194 -76
21.5222 -77
21.525 -75
21.5278 -77
21.5306 -77
21.5333 -75
21.5361 -76
21.5389 -80
21.5417 -81
21.5444 -83
21.5472 -82
21.55 -83
21.5528 -80
21.5556 -82
21.5583 -82
21.5611 -83
21.5639 -83
21.5667 -83
21.5694 -83
21.5722 -83
21.575 -85
21.5778 -89
21.5806 -86
21.5833 -84
21.5861 -83
21.5889 -80
21.5917 -82
21.5944 -81
21.5972 -77
21.6 -75
21.6028 -70
21.6056 -70
21.6083 -70
21.6111 -71
21.6139 -67
21.6167 -66
21.6194 -61
21.6222 -62
21.625 -65
21.6278 -65
21.6306 -63
21.6333 -63
21.6361 -62
21.6389 -62
21.6417 -61
21.6444 -63
21.6472 -64
21.65 -62
21.6528 -61
21.6556 -61
21.6583 -61
21.6611 -62
21.6639 -59
21.6667 -59
21.6694 -58
21.6722 -57
21.675 -57
21.6778 -61
21.6806 -61
21.6833 -59
21.6861 -58
21.6889 -59
21.6917 -59
21.6944 -61
21.6972 -61
21.7 -60
21.7028 -60
21.7056 -60
21.7083 -64
21.7111 -64
21.7139 -65
21.7167 -64
21.7194 -64
21.7222 -61
21.725 -65
21.7278 -64
21.7306 -63
21.7333 -64
21.7361 -62
21.7389 -63
21.7417 -62
21.7444 -63
21.7472 -63
21.75 -63
21.7528 -61
21.7556 -62
21.7583 -63
21.7611 -65
21.7639 -66
21.7667 -66
21.7694 -65
21.7722 -65
21.775 -66
21.7778 -70
21.7806 -70
21.7833 -66
21.7861 -65
21.7889 -66
21.7917 -70
21.7944 -72
21.7972 -70
21.8 -68
21.8028 -66
21.8056 -66
21.8083 -66
21.8111 -70
21.8139 -70
21.8167 -68
21.8194 -65
21.8222 -64
21.825 -66
21.8278 -67
21.8306 -70
21.8333 -68
21.8361 -69
21.8389 -68
21.8417 -66
21.8444 -67
21.8472 -68
21.85 -64
21.8528 -65
21.8556 -66
21.8583 -70
21.8611 -70
21.8639 -67
21.8667 -64
21.8694 -62
21.8722 -61
21.875 -59
21.8778 -59
21.8806 -55
21.8833 -54
21.8861 -51
21.8889 -53
21.8917 -50
21.8944 -50
21.8972 -50
21.9 -45
21.9028 -44
21.9056 -44
21.9083 -46
21.9111 -50
21.9139 -50
21.9167 -50
21.9194 -47
21.9222 -46
21.925 -49
21.9278 -48
21.9306 -47
21.9333 -47
21.9361 -46
21.9389 -51
21.9417 -52
21.9444 -55
21.9472 -53
21.95 -51
21.9528 -46
21.9556 -45
21.9583 -48
21.9611 -54
21.9639 -57
21.9667 -59
21.9694 -61
21.9722 -64
21.975 -71
21.9778 -73
21.9806 -72
21.9833 -73
21.9861 -71
21.9889 -71
21.9917 -72
21.9944 -73
21.9972 -73
22 -71
22.0028 -69
22.0056 -71
22.0083 -74
22.0111 -77
22.0139 -74
22.0167 -70
22.0194 -70
22.0222 -69
22.025 -72
22.0278 -74
22.0306 -74
22.0333 -72
22.0361 -69
22.0389 -72
22.0417 -73
22.0444 -77
22.0472 -78
22.05 -81
22.0528 -86
22.0556 -90
22.0583 -94
22.0611 -103
22.0639 -110
22.0667 -113
22.0694 -101
22.0722 -84
22.075 -59
22.0778 -26
22.0806 16
22.0833 72
22.0861 124
22.0889 167
22.0917 184
22.0944 166
22.0972 109
22.1 32
22.1028 -36
22.1056 -79
22.1083 -98
22.1111 -103
22.1139 -94
22.1167 -85
22.1194 -82
22.1222 -82
22.125 -83
22.1278 -82
22.1306 -81
22.1333 -79
22.1361 -79
22.1389 -79
22.1417 -81
22.1444 -82
22.1472 -80
22.15 -81
22.1528 -79
22.1556 -80
22.1583 -82
22.1611 -84
22.1639 -83
22.1667 -83
22.1694 -81
22.1722 -82
22.175 -86
22.1778 -89
22.1806 -89
22.1833 -85
22.1861 -83
22.1889 -84
22.1917 -84
22.1944 -85
22.1972 -84
22.2 -85
22.2028 -82
22.2056 -83
22.2083 -87
22.2111 -88
22.2139 -87
22.2167 -83
22.2194 -83
22.2222 -82
22.225 -82
22.2278 -84
22.2306 -86
22.2333 -87
22.2361 -85
22.2389 -84
22.2417 -84
22.2444 -85
22.2472 -85
22.25 -85
22.2528 -84
22.2556 -85
22.2583 -85
22.2611 -85
22.2639 -84
22.2667 -83
22.2694 -83
22.2722 -83
22.275 -84
22.2778 -86
22.2806 -85
22.2833 -84
22.2861 -83
22.2889 -84
22.2917 -84
22.2944 -86
22.2972 -84
22.3 -84
22.3028 -82
22.3056 -81
22.3083 -85
22.3111 -87
22.3139 -88
22.3167 -84
22.3194 -83
22.3222 -86
22.325 -88
22.3278 -90
22.3306 -90
22.3333 -89
22.3361 -89
22.3389 -89
22.3417 -93
22.3444 -95
22.3472 -98
22.35 -96
22.3528 -95
22.3556 -96
22.3583 -97
22.3611 -98
22.3639 -97
22.3667 -95
22.3694 -91
22.3722 -93
22.375 -92
22.3778 -94
22.3806 -91
22.3833 -90
22.3861 -87
22.3889 -86
22.3917 -86
22.3944 -84
22.3972 -83
22.4 -78
22.4028 -77
22.4056 -75
22.4083 -75
22.4111 -75
22.4139 -72
22.4167 -69
22.4194 -67
22.4222 -66
22.425 -69
22.4278 -68
22.4306 -67
22.4333 -66
22.4361 -65
22.4389 -64
22.4417 -66
22.4444 -67
22.4472 -65
22.45 -64
22.4528 -62
22.4556 -61
22.4583 -65
22.4611 -66
22.4639 -65
22.4667 -64
22.4694 -61
22.4722 -64
22.475 -64
22.4778 -68
22.4806 -65
22.4833 -65
22.4861 -66
22.4889 -66
22.4917 -69
22.4944 -71
22.4972 -70
22.5 -66
22.5028 -65
22.5056 -67
22.5083 -67
22.5111 -72
22.5139 -70
22.5167 -69
22.5194 -71
22.5222 -72
22.525 -70
22.5278 -74
22.5306 -70
22.5333 -71
22.5361 -70
22.5389 -70
22.5417 -70
22.5444 -73
22.5472 -71
22.55 -72
22.5528 -70
22.5556 -72
22.5583 -73
22.5611 -75
22.5639 -73
22.5667 -75
22.5694 -73
22.5722 -76
22.575 -76
22.5778 -79
22.5806 -77
22.5833 -75
22.5861 -74
22.5889 -75
22.5917 -75
22.5944 -77
22.5972 -75
22.6 -75
22.6028 -72
22.6056 -74
22.6083 -75
22.6111 -76
22.6139 -75
22.6167 -73
22.6194 -72
22.6222 -72
22.625 -73
22.6278 -76
22.6306 -76
22.6333 -75
22.6361 -71
22.6389 -73
22.6417 -74
22.6444 -77
22.6472 -75
22.65 -72
22.6528 -73
22.6556 -73
22.6583 -76
22.6611 -76
22.6639 -74
22.6667 -72
22.6694 -72
22.6722 -70
22.675 -72
22.6778 -73
22.6806 -70
22.6833 -69
22.6861 -67
22.6889 -65
22.6917 -64
22.6944 -66
22.6972 -64
22.7 -60
22.7028 -60
22.7056 -59
22.7083 -61
22.7111 -59
22.7139 -57
22.7167 -54
22.7194 -54
22.7222 -51
22.725 -53
22.7278 -54
22.7306 -55
22.7333 -53
22.7361 -55
22.7389 -54
22.7417 -57
22.7444 -59
22.7472 -59
22.75 -57
22.7528 -55
22.7556 -56
22.7583 -60
22.7611 -58
22.7639 -57
22.7667 -51
22.7694 -48
22.7722 -54
22.775 -60
22.7778 -68
22.7806 -68
22.7833 -70
22.7861 -72
22.7889 -76
22.7917 -78
22.7944 -81
22.7972 -80
22.8 -77
22.8028 -77
22.8056 -77
22.8083 -81
22.8111 -82
22.8139 -81
22.8167 -78
22.8194 -80
22.8222 -79
22.825 -83
22.8278 -83
22.8306 -81
22.8333 -79
22.8361 -78
22.8389 -78
22.8417 -81
22.8444 -83
22.8472 -83
22.85 -80
22.8528 -81
22.8556 -86
22.8583 -96
22.8611 -105
22.8639 -110
22.8667 -114
22.8694 -119
22.8722 -129
22.875 -128
22.8778 -114
22.8806 -88
22.8833 -67
22.8861 -50
22.8889 -30
22.8917 -3
22.8944 32
22.8972 82
22.9 133
22.9028 171
22.9056 191
22.9083 182
22.9111 129
22.9139 43
22.9167 -39
22.9194 -89
22.9222 -108
22.925 -102
22.9278 -97
22.9306 -87
22.9333 -89
22.9361 -88
22.9389 -88
22.9417 -88
22.9444 -90
22.9472 -91
22.95 -91
22.9528 -90
22.9556 -91
22.9583 -92
22.9611 -94
22.9639 -93
22.9667 -90
22.9694 -88
22.9722 -90
22.975 -89
22.9778 -92
22.9806 -92
22.9833 -88
22.9861 -89
22.9889 -89
22.9917 -90
22.9944 -91
22.9972 -90
23 -91
23.0028 -87
23.0056 -91
23.0083 -90
23.0111 -91
23.0139 -91
23.0167 -89
23.0194 -88
23.0222 -87
23.025 -87
23.0278 -90
23.0306 -89
23.0333 -86
23.0361 -88
23.0389 -90
23.0417 -90
23.0444 -91
23.0472 -92
23.05 -88
23.0528 -87
23.0556 -89
23.0583 -91
23.0611 -92
23.0639 -91
23.0667 -88
23.0694 -89
23.0722 -88
23.075 -90
23.0778 -93
23.0806 -90
23.0833 -91
23.0861 -88
23.0889 -88
23.0917 -90
23.0944 -95
23.0972 -91
23.1 -90
23.1028 -90
23.1056 -88
23.1083 -88
23.1111 -91
23.1139 -88
23.1167 -88
23.1194 -87
23.1222 -88
23.125 -89
23.1278 -91
23.1306 -90
23.1333 -88
23.1361 -87
23.1389 -90
23.1417 -89
23.1444 -91
23.1472 -90
23.15 -89
23.1528 -89
23.1556 -91
23.1583 -94
23.1611 -94
23.1639 -96
23.1667 -93
23.1694 -91
23.1722 -91
23.175 -93
23.1778 -94
23.1806 -94
23.1833 -91
23.1861 -91
23.1889 -92
23.1917 -90
23.1944 -91
23.1972 -89
23.2 -87
23.2028 -82
23.2056 -84
23.2083 -84
23.2111 -85
23.2139 -82
23.2167 -78
23.2194 -74
23.2222 -74
23.225 -75
23.2278 -76
23.2306 -72
23.2333 -70
23.2361 -70
23.2389 -67
23.2417 -68
23.2444 -71
23.2472 -71
23.25 -68
23.2528 -66
23.2556 -69
23.2583 -70
23.2611 -69
23.2639 -69
23.2667 -66
23.2694 -63
23.2722 -65
23.275 -68
23.2778 -68
23.2806 -68
23.2833 -68
23.2861 -67
23.2889 -69
23.2917 -70
23.2944 -74
23.2972 -70
23.3 -69
23.3028 -67
23.3056 -71
23.3083 -73
23.3111 -72
23.3139 -73
23.3167 -72
23.3194 -70
23.3222 -71
23.325 -71
23.3278 -75
23.3306 -75
23.3333 -74
23.3361 -71
23.3389 -71
23.3417 -75
23.3444 -75
23.3472 -77
23.35 -73
23.3528 -72
23.3556 -73
23.3583 -78
23.3611 -78
23.3639 -77
23.3667 -76
23.3694 -77
23.3722 -78
23.375 -78
23.3778 -81
23.3806 -78
23.3833 -79
23.3861 -78
23.3889 -79
23.3917 -82
23.3944 -83
23.3972 -83
23.4 -81
23.4028 -79
23.4056 -81
23.4083 -83
23.4111 -84
23.4139 -82
23.4167 -84
23.4194 -80
23.4222 -80
23.425 -81
23.4278 -83
23.4306 -84
23.4333 -80
23.4361 -79
23.4389 -77
23.4417 -81
23.4444 -82
23.4472 -82
23.45 -81
23.4528 -79
23.4556 -81
23.4583 -82
23.4611 -82
23.4639 -83
23.4667 -83
23.4694 -81
23.4722 -79
23.475 -81
23.4778 -82
23.4806 -82
23.4833 -80
23.4861 -79
23.4889 -79
23.4917 -79
23.4944 -81
23.4972 -78
23.5 -74
23.5028 -73
23.5056 -71
23.5083 -71
23.5111 -71
23.5139 -70
23.5167 -68
23.5194 -66
23.5222 -65
23.525 -68
23.5278 -69
23.5306 -69
23.5333 -65
23.5361 -60
23.5389 -61
23.5417 -61
23.5444 -64
23.5472 -60
23.55 -63
23.5528 -59
23.5556 -61
23.5583 -64
23.5611 -66
23.5639 -64
23.5667 -60
23.5694 -59
23.5722 -62
23.575 -65
23.5778 -64
23.5806 -60
23.5833 -56
23.5861 -59
23.5889 -66
23.5917 -73
23.5944 -77
23.5972 -78
23.6 -79
23.6028 -79
23.6056 -82
23.6083 -84
23.6111 -88
23.6139 -86
23.6167 -84
23.6194 -83
23.6222 -82
23.625 -86
23.6278 -87
23.6306 -86
23.6333 -86
23.6361 -84
23.6389 -84
23.6417 -88
23.6444 -89
23.6472 -86
23.65 -86
23.6528 -85
23.6556 -86
23.6583 -86
23.6611 -89
23.6639 -88
23.6667 -91
23.6694 -86
23.6722 -88
23.675 -91
23.6778 -96
23.6806 -102
23.6833 -109
23.6861 -113
23.6889 -116
23.6917 -127
23.6944 -133
23.6972 -126
23.7 -102
23.7028 -71
23.7056 -40
23.7083 -5
23.7111 48
23.7139 108
23.7167 151
23.7194 169
23.7222 159
23.725 110
23.7278 24
23.7306 -57
23.7333 -104
23.7361 -117
23.7389 -112
23.7417 -104
23.7444 -100
23.7472 -94
23.75 -95
23.7528 -94
23.7556 -92
23.7583 -96
23.7611 -97
23.7639 -97
23.7667 -94
23.7694 -93
23.7722 -95
23.775 -96
23.7778 -98
23.7806 -97
23.7833 -95
23.7861 -94
23.7889 -95
23.7917 -98
23.7944 -99
23.7972 -99
23.8 -99
23.8028 -96
23.8056 -98
23.8083 -97
23.8111 -99
23.8139 -98
23.8167 -97
23.8194 -96
23.8222 -95
23.825 -97
23.8278 -98
23.8306 -97
23.8333 -96
23.8361 -95
23.8389 -97
23.8417 -97
23.8444 -102
23.8472 -99
23.85 -98
23.8528 -97
23.8556 -95
23.8583 -95
23.8611 -99
23.8639 -95
23.8667 -95
23.8694 -95
23.8722 -94
23.875 -99
23.8778 -99
23.8806 -99
23.8833 -98
23.8861 -94
23.8889 -97
23.8917 -99
23.8944 -101
23.8972 -99
23.9 -98
23.9028 -98
23.9056 -96
23.9083 -98
23.9111 -100
23.9139 -99
23.9167 -98
23.9194 -95
23.9222 -96
23.925 -98
23.9278 -100
23.9306 -96
23.9333 -97
23.9361 -95
23.9389 -96
23.9417 -96
23.9444 -96
23.9472 -94
23.95 -93
23.9528 -92
23.9556 -95
23.9583 -95
23.9611 -96
23.9639 -98
23.9667 -96
23.9694 -94
23.9722 -96
23.975 -99
23.9778 -101
23.9806 -101
23.9833 -97
23.9861 -97
23.9889 -97
23.9917 -99
23.9944 -101
23.9972 -101
24 -98
24.0028 -97
24.0056 -100
24.0083 -98
24.0111 -100
24.0139 -96
24.0167 -94
24.0194 -89
24.0222 -90
24.025 -90
24.0278 -90
24.0306 -85
24.0333 -81
24.0361 -77
24.0389 -77
24.0417 -79
24.0444 -78
24.0472 -77
24.05 -75
24.0528 -74
24.0556 -75
24.0583 -77
24.0611 -78
24.0639 -78
24.0667 -77
24.0694 -74
24.0722 -74
24.075 -78
24.0778 -77
24.0806 -77
24.0833 -77
24.0861 -75
24.0889 -75
24.0917 -76
24.0944 -78
24.0972 -74
24.1 -76
24.1028 -73
24.1056 -74
24.1083 -75
24.1111 -78
24.1139 -76
24.1167 -73
24.1194 -73
24.1222 -74
24.125 -75
24.1278 -79
24.1306 -78
24.1333 -78
24.1361 -76
24.1389 -78
24.1417 -81
24.1444 -83
24.1472 -83
24.15 -82
24.1528 -79
24.1556 -79
24.1583 -82
24.1611 -84
24.1639 -82
24.1667 -83
24.1694 -80
24.1722 -84
24.175 -85
24.1778 -86
24.1806 -86
24.1833 -85
24.1861 -82
24.1889 -82
24.1917 -82
24.1944 -85
24.1972 -85
24.2 -82
24.2028 -82
24.2056 -84
24.2083 -84
24.2111 -89
24.2139 -90
24.2167 -87
24.2194 -86
24.2222 -86
24.225 -88
24.2278 -90
24.2306 -89
24.2333 -88
24.2361 -84
24.2389 -84
24.2417 -86
24.2444 -89
24.2472 -89
24.25 -87
24.2528 -85
24.2556 -85
24.2583 -89
24.2611 -90
24.2639 -89
24.2667 -87
24.2694 -85
24.2722 -84
24.275 -86
24.2778 -86
24.2806 -86
24.2833 -84
24.2861 -81
24.2889 -83
24.2917 -84
24.2944 -85
24.2972 -85
24.3 -84
24.3028 -85
24.3056 -84
24.3083 -85
24.3111 -88
24.3139 -88
24.3167 -85
24.3194 -84
24.3222 -84
24.325 -83
24.3278 -85
24.3306 -80
24.3333 -76
24.3361 -73
24.3389 -74
24.3417 -74
24.3444 -73
24.3472 -71
24.35 -69
24.3528 -66
24.3556 -64
24.3583 -64
24.3611 -66
24.3639 -65
24.3667 -63
24.3694 -63
24.3722 -63
24.375 -65
24.3778 -68
24.3806 -69
24.3833 -67
24.3861 -65
24.3889 -67
24.3917 -71
24.3944 -76
24.3972 -72
24.4 -69
24.4028 -61
24.4056 -59
24.4083 -63
24.4111 -67
24.4139 -73
24.4167 -74
24.4194 -75
24.4222 -77
24.425 -81
24.4278 -86
24.4306 -86
24.4333 -86
24.4361 -86
24.4389 -87
24.4417 -90
24.4444 -92
24.4472 -92
24.45 -92
24.4528 -91
24.4556 -90
24.4583 -90
24.4611 -93
24.4639 -94
24.4667 -94
24.4694 -92
24.4722 -95
24.475 -96
24.4778 -98
24.4806 -96
24.4833 -93
24.4861 -93
24.4889 -96
24.4917 -97
24.4944 -99
24.4972 -99
24.5 -98
24.5028 -98
24.5056 -105
24.5083 -111
24.5111 -120
24.5139 -122
24.5167 -124
24.5194 -131
24.5222 -136
24.525 -131
24.5278 -115
24.5306 -89
24.5333 -62
24.5361 -26
24.5389 25
24.5417 79
24.5444 120
24.5472 145
24.55 143
24.5528 106
24.5556 37
24.5583 -39
24.5611 -91
24.5639 -118
24.5667 -123
24.5694 -117
24.5722 -109
24.575 -107
24.5778 -107
24.5806 -107
24.5833 -105
24.5861 -101
24.5889 -103
24.5917 -101
24.5944 -103
24.5972 -103
24.6 -98
24.6028 -99
24.6056 -100
24.6083 -98
24.6111 -104
24.6139 -102
24.6167 -104
24.6194 -101
24.6222 -101
24.625 -101
24.6278 -103
24.6306 -103
24.6333 -100
24.6361 -102
24.6389 -103
24.6417 -105
24.6444 -106
24.6472 -105
24.65 -107
24.6528 -104
24.6556 -105
24.6583 -104
24.6611 -106
24.6639 -104
24.6667 -104
24.6694 -102
24.6722 -103
24.675 -102
24.6778 -106
24.6806 -106
24.6833 -104
24.6861 -102
24.6889 -101
24.6917 -105
24.6944 -106
24.6972 -105
24.7 -102
24.7028 -99
24.7056 -100
24.7083 -102
24.7111 -104
24.7139 -104
24.7167 -103
24.7194 -101
24.7222 -100
24.725 -102
24.7278 -104
24.7306 -101
24.7333 -103
24.7361 -102
24.7389 -104
24.7417 -101
24.7444 -101
24.7472 -103
24.75 -105
24.7528 -100
24.7556 -99
24.7583 -99
24.7611 -101
24.7639 -99
24.7667 -98
24.7694 -95
24.7722 -98
24.775 -99
24.7778 -102
24.7806 -101
24.7833 -100
24.7861 -100
24.7889 -100
24.7917 -101
24.7944 -103
24.7972 -101
24.8 -101
24.8028 -103
24.8056 -102
24.8083 -105
24.8111 -107
24.8139 -107
24.8167 -108
24.8194 -104
24.8222 -108
24.825 -108
24.8278 -112
24.8306 -110
24.8333 -108
24.8361 -109
24.8389 -108
24.8417 -109
24.8444 -110
24.8472 -111
24.85 -106
24.8528 -104
24.8556 -103
24.8583 -100
24.8611 -101
24.8639 -101
24.8667 -97
24.8694 -93
24.8722 -94
24.875 -92
24.8778 -92
24.8806 -91
24.8833 -87
24.8861 -86
24.8889 -85
24.8917 -86
24.8944 -88
24.8972 -88
24.9 -87
24.9028 -82
24.9056 -82
24.9083 -83
24.9111 -84
24.9139 -82
24.9167 -80
24.9194 -79
24.9222 -78
24.925 -81
24.9278 -82
24.9306 -81
24.9333 -78
24.9361 -80
24.9389 -81
24.9417 -83
24.9444 -83
24.9472 -83
24.95 -82
24.9528 -80
24.9556 -82
24.9583 -82
24.9611 -85
24.9639 -83
24.9667 -79
24.9694 -81
24.9722 -80
24.975 -83
24.9778 -84
24.9806 -85
24.9833 -82
24.9861 -80
24.9889 -81
24.9917 -84
24.9944 -84
24.9972 -83
25 -82
25.0028 -82
25.0056 -84
25.0083 -85
25.0111 -88
25.0139 -87
25.0167 -86
25.0194 -86
25.0222 -86
25.025 -86
25.0278 -89
25.0306 -90
25.0333 -87
25.0361 -85
25.0389 -84
25.0417 -85
25.0444 -86
25.0472 -91
25.05 -90
25.0528 -88
25.0556 -86
25.0583 -88
25.0611 -88
25.0639 -88
25.0667 -86
25.0694 -84
25.0722 -83
25.075 -85
25.0778 -90
25.0806 -91
25.0833 -90
25.0861 -89
25.0889 -87
25.0917 -87
25.0944 -90
25.0972 -90
25.1 -89
25.1028 -86
25.1056 -85
25.1083 -90
25.1111 -92
25.1139 -89
25.1167 -88
25.1194 -85
25.1222 -84
25.125 -89
25.1278 -90
25.1306 -87
25.1333 -85
25.1361 -82
25.1389 -84
25.1417 -88
25.1444 -89
25.1472 -87
25.15 -86
25.1528 -86
25.1556 -85
25.1583 -86
25.1611 -85
25.1639 -82
25.1667 -82
25.1694 -76
25.1722 -73
25.175 -74
25.1778 -80
25.1806 -78
25.1833 -74
25.1861 -71
25.1889 -70
25.1917 -72
25.1944 -76
25.1972 -74
25.2 -71
25.2028 -66
25.2056 -65
25.2083 -65
25.2111 -66
25.2139 -64
25.2167 -64
25.2194 -63
25.2222 -64
25.225 -68
25.2278 -71
25.2306 -70
25.2333 -68
25.2361 -68
25.2389 -72
25.2417 -74
25.2444 -77
25.2472 -74
25.25 -68
25.2528 -65
25.2556 -67
25.2583 -76
25.2611 -78
25.2639 -82
25.2667 -84
25.2694 -84
25.2722 -88
25.275 -90
25.2778 -92
25.2806 -89
25.2833 -91
25.2861 -87
25.2889 -89
25.2917 -90
25.2944 -92
25.2972 -93
25.3 -92
25.3028 -91
25.3056 -91
25.3083 -93
25.3111 -96
25.3139 -93
25.3167 -91
25.3194 -91
25.3222 -94
25.325 -94
25.3278 -95
25.3306 -97
25.3333 -94
25.3361 -96
25.3389 -92
25.3417 -96
25.3444 -97
25.3472 -97
25.35 -99
25.3528 -105
25.3556 -108
25.3583 -114
25.3611 -119
25.3639 -127
25.3667 -134
25.3694 -126
25.3722 -108
25.375 -83
25.3778 -56
25.3806 -16
25.3833 33
25.3861 87
25.3889 135
25.3917 160
25.3944 166
25.3972 132
25.4 69
25.4028 -8
25.4056 -70
25.4083 -106
25.4111 -121
25.4139 -125
25.4167 -118
25.4194 -109
25.4222 -104
25.425 -102
25.4278 -106
25.4306 -103
25.4333 -100
25.4361 -99
25.4389 -99
25.4417 -101
25.4444 -101
25.4472 -101
25.45 -99
25.4528 -100
25.4556 -100
25.4583 -100
25.4611 -104
25.4639 -101
25.4667 -99
25.4694 -99
25.4722 -100
25.475 -102
25.4778 -103
25.4806 -102
25.4833 -100
25.4861 -96
25.4889 -100
25.4917 -101
25.4944 -104
25.4972 -103
25.5 -101
25.5028 -98
25.5056 -102
25.5083 -101
25.5111 -100
25.5139 -101
25.5167 -98
25.5194 -96
25.5222 -98
25.525 -97
25.5278 -100
25.5306 -100
25.5333 -98
25.5361 -97
25.5389 -99
25.5417 -101
25.5444 -101
25.5472 -102
25.55 -100
25.5528 -98
25.5556 -98
25.5583 -100
25.5611 -102
25.5639 -103
25.5667 -99
25.5694 -99
25.5722 -98
25.575 -103
25.5778 -102
25.5806 -101
25.5833 -99
25.5861 -99
25.5889 -97
25.5917 -98
25.5944 -102
25.5972 -99
25.6 -97
25.6028 -96
25.6056 -96
25.6083 -99
25.6111 -102
25.6139 -104
25.6167 -102
25.6194 -101
25.6222 -103
25.625 -104
25.6278 -108
25.6306 -108
25.6333 -104
25.6361 -106
25.6389 -107
25.6417 -108
25.6444 -111
25.6472 -111
25.65 -108
25.6528 -108
25.6556 -109
25.6583 -108
25.6611 -110
25.6639 -108
25.6667 -106
25.6694 -106
25.6722 -105
25.675 -105
25.6778 -104
25.6806 -102
25.6833 -99
25.6861 -96
25.6889 -93
25.6917 -94
25.6944 -93
25.6972 -91
25.7 -88
25.7028 -83
25.7056 -83
25.7083 -82
25.7111 -82
25.7139 -78
25.7167 -78
25.7194 -76
25.7222 -76
25.725 -78
25.7278 -79
25.7306 -77
25.7333 -76
25.7361 -73
25.7389 -75
25.7417 -77
25.7444 -75
25.7472 -76
25.75 -74
25.7528 -73
25.7556 -74
25.7583 -76
25.7611 -80
25.7639 -79
25.7667 -78
25.7694 -77
25.7722 -79
25.775 -80
25.7778 -82
25.7806 -82
25.7833 -80
25.7861 -78
25.7889 -79
25.7917 -79
25.7944 -81
25.7972 -81
25.8 -79
25.8028 -77
25.8056 -80
25.8083 -82
25.8111 -82
25.8139 -82
25.8167 -80
25.8194 -77
25.8222 -79
25.825 -79
25.8278 -80
25.8306 -81
25.8333 -78
25.8361 -77
25.8389 -81
25.8417 -83
25.8444 -84
25.8472 -83
25.85 -82
25.8528 -82
25.8556 -81
25.8583 -84
25.8611 -87
25.8639 -86
25.8667 -86
25.8694 -84
25.8722 -82
25.875 -85
25.8778 -88
25.8806 -89
25.8833 -83
25.8861 -83
25.8889 -84
25.8917 -84
25.8944 -89
25.8972 -85
25.9 -82
25.9028 -83
25.9056 -84
25.9083 -82
25.9111 -84
25.9139 -81
25.9167 -80
25.9194 -78
25.9222 -78
25.925 -79
25.9278 -82
25.9306 -81
25.9333 -79
25.9361 -79
25.9389 -79
25.9417 -81
25.9444 -84
25.9472 -84
25.95 -81
25.9528 -79
25.9556 -78
25.9583 -82
25.9611 -83
25.9639 -83
25.9667 -82
25.9694 -78
25.9722 -78
25.975 -80
25.9778 -79
25.9806 -79
25.9833 -75
25.9861 -74
25.9889 -69
25.9917 -70
25.9944 -68
25.9972 -66
26 -64
26.0028 -60
26.0056 -61
